    FDMNES
    energy     <xanes>
   7097.00  5.1194177E-03
   7097.33  5.2388681E-03
   7097.67  5.3636002E-03
   7098.00  5.4939570E-03
   7098.33  5.6311359E-03
   7098.67  5.7748655E-03
   7099.00  5.9256056E-03
   7099.33  6.0849001E-03
   7099.67  6.2524607E-03
   7100.00  6.4289184E-03
   7100.33  6.6163083E-03
   7100.67  6.8143405E-03
   7101.00  7.0239039E-03
   7101.33  7.2477530E-03
   7101.67  7.4856309E-03
   7102.00  7.7388296E-03
   7102.33  8.0111957E-03
   7102.67  8.3025821E-03
   7103.00  8.6149394E-03
   7103.33  8.9538461E-03
   7103.67  9.3194367E-03
   7104.00  9.7147947E-03
   7104.33  1.0148399E-02
   7104.67  1.0621062E-02
   7105.00  1.1137951E-02
   7105.33  1.1712745E-02
   7105.67  1.2347920E-02
   7106.00  1.3052814E-02
   7106.33  1.3851339E-02
   7106.67  1.4750320E-02
   7107.00  1.5768522E-02
   7107.33  1.6952786E-02
   7107.67  1.8322931E-02
   7108.00  1.9923187E-02
   7108.33  2.1863295E-02
   7108.67  2.4212034E-02
   7109.00  2.7105975E-02
   7109.33  3.0898903E-02
   7109.67  3.5937040E-02
   7110.00  4.2902727E-02
   7110.33  5.3695816E-02
   7110.67  6.9946564E-02
   7111.00  9.1056078E-02
   7111.33  1.1203296E-01
   7111.67  1.3273869E-01
   7112.00  1.5784561E-01
   7112.33  1.9626250E-01
   7112.67  2.4862339E-01
   7113.00  3.1488029E-01
   7113.33  3.9919335E-01
   7113.67  4.9582176E-01
   7114.00  5.8826392E-01
   7114.33  6.3208773E-01
   7114.67  6.0554548E-01
   7115.00  5.1946146E-01
   7115.33  4.1743436E-01
   7115.67  3.3977725E-01
   7116.00  2.9307708E-01
   7116.33  2.7529050E-01
   7116.67  2.7061951E-01
   7117.00  2.6222221E-01
   7117.33  2.4166719E-01
   7117.67  2.1974587E-01
   7118.00  2.0180376E-01
   7118.33  1.8842672E-01
   7118.67  1.7766281E-01
   7119.00  1.6865880E-01
   7119.33  1.6094260E-01
   7119.67  1.5422467E-01
   7120.00  1.4845796E-01
   7120.33  1.4350230E-01
   7120.67  1.3923800E-01
   7121.00  1.3596343E-01
   7121.33  1.3414921E-01
   7121.67  1.3342968E-01
   7122.00  1.3338897E-01
   7122.33  1.3400675E-01
   7122.67  1.3551529E-01
   7123.00  1.3802098E-01
   7123.33  1.4145565E-01
   7123.67  1.4556232E-01
   7124.00  1.5041544E-01
   7124.33  1.5652830E-01
   7124.67  1.6441951E-01
   7125.00  1.7486604E-01
   7125.33  1.8942929E-01
   7125.67  2.0878730E-01
   7126.00  2.3369266E-01
   7126.33  2.6525519E-01
   7126.67  3.0223817E-01
   7127.00  3.4245257E-01
   7127.33  3.7997765E-01
   7127.67  4.0950734E-01
   7128.00  4.3033918E-01
   7128.33  4.4621656E-01
   7128.67  4.6343859E-01
   7129.00  4.8557409E-01
   7129.33  5.1527284E-01
   7129.67  5.5135638E-01
   7130.00  5.9243326E-01
   7130.33  6.3616225E-01
   7130.67  6.7882091E-01
   7131.00  7.1798910E-01
   7131.33  7.5264013E-01
   7131.67  7.8524960E-01
   7132.00  8.1804759E-01
   7132.33  8.5248617E-01
   7132.67  8.8725126E-01
   7133.00  9.1929209E-01
   7133.33  9.4236965E-01
   7133.67  9.5264873E-01
   7134.00  9.4836030E-01
   7134.33  9.2927925E-01
   7134.67  9.0071237E-01
   7135.00  8.6598815E-01
   7135.33  8.2767631E-01
   7135.67  7.8797993E-01
   7136.00  7.4775024E-01
   7136.33  7.0757017E-01
   7136.67  6.6790751E-01
   7137.00  6.2925796E-01
   7137.33  5.9256911E-01
   7137.67  5.5845183E-01
   7138.00  5.2763633E-01
   7138.33  5.0139563E-01
   7138.67  4.7975875E-01
   7139.00  4.6292778E-01
   7139.33  4.5140003E-01
   7139.67  4.4420204E-01
   7140.00  4.4086211E-01
   7140.33  4.4119246E-01
   7140.67  4.4423429E-01
   7141.00  4.4958880E-01
   7141.33  4.5712104E-01
   7141.67  4.6628085E-01
   7142.00  4.7683239E-01
   7142.33  4.8864795E-01
   7142.67  5.0130816E-01
   7143.00  5.1455926E-01
   7143.33  5.2812865E-01
   7143.67  5.4167743E-01
   7144.00  5.5496277E-01
   7144.33  5.6765874E-01
   7144.67  5.7959587E-01
   7145.00  5.9059773E-01
   7145.33  6.0035389E-01
   7145.67  6.0886407E-01
   7146.00  6.1603754E-01
   7146.33  6.2162430E-01
   7146.67  6.2575258E-01
   7147.00  6.2840007E-01
   7147.33  6.2938400E-01
   7147.67  6.2893110E-01
   7148.00  6.2711603E-01
   7148.33  6.2392337E-01
   7148.67  6.1969601E-01
   7149.00  6.1462977E-01
   7149.33  6.0890039E-01
   7149.67  6.0283462E-01
   7150.00  5.9663840E-01
   7150.33  5.9053517E-01
   7150.67  5.8469798E-01
   7151.00  5.7926336E-01
   7151.33  5.7442858E-01
   7151.67  5.7022680E-01
   7152.00  5.6672522E-01
   7152.33  5.6407896E-01
   7152.67  5.6223402E-01
   7153.00  5.6120898E-01
   7153.33  5.6110487E-01
   7153.67  5.6178988E-01
   7154.00  5.6321370E-01
   7154.33  5.6536868E-01
   7154.67  5.6805463E-01
   7155.00  5.7114995E-01
   7155.33  5.7453002E-01
   7155.67  5.7800239E-01
   7156.00  5.8143522E-01
   7156.33  5.8467054E-01
   7156.67  5.8762099E-01
   7157.00  5.9021721E-01
   7157.33  5.9235613E-01
   7157.67  5.9406329E-01
   7158.00  5.9533327E-01
   7158.33  5.9611727E-01
   7158.67  5.9648089E-01
   7159.00  5.9643584E-01
   7159.33  5.9594559E-01
   7159.67  5.9507040E-01
   7160.00  5.9381773E-01
   7160.33  5.9214851E-01
   7160.67  5.9011704E-01
   7161.00  5.8773254E-01
   7161.33  5.8496480E-01
   7161.67  5.8187193E-01
   7162.00  5.7847125E-01
   7162.33  5.7475158E-01
   7162.67  5.7077245E-01
   7163.00  5.6655281E-01
   7163.33  5.6209107E-01
   7163.67  5.5744250E-01
   7164.00  5.5263680E-01
   7164.33  5.4769348E-01
   7164.67  5.4265955E-01
   7165.00  5.3755938E-01
   7165.33  5.3241210E-01
   7165.67  5.2724415E-01
   7166.00  5.2207145E-01
   7166.33  5.1690968E-01
   7166.67  5.1176846E-01
   7167.00  5.0665504E-01
   7167.33  5.0157889E-01
   7167.67  4.9653867E-01
   7168.00  4.9153686E-01
   7168.33  4.8658309E-01
   7168.67  4.8167890E-01
   7169.00  4.7683251E-01
   7169.33  4.7206488E-01
   7169.67  4.6738367E-01
   7170.00  4.6280719E-01
   7170.33  4.5837683E-01
   7170.67  4.5410951E-01
   7171.00  4.5005045E-01
   7171.33  4.4632087E-01
   7171.67  4.4302852E-01
   7172.00  4.4035331E-01
