    FDMNES
    energy     <xanes>
   7097.00  5.0114033E-03
   7097.33  5.1269301E-03
   7097.67  5.2475794E-03
   7098.00  5.3736912E-03
   7098.33  5.5064397E-03
   7098.67  5.6455735E-03
   7099.00  5.7915535E-03
   7099.33  5.9459072E-03
   7099.67  6.1083747E-03
   7100.00  6.2795973E-03
   7100.33  6.4616138E-03
   7100.67  6.6541768E-03
   7101.00  6.8582073E-03
   7101.33  7.0765098E-03
   7101.67  7.3088988E-03
   7102.00  7.5567463E-03
   7102.33  7.8240553E-03
   7102.67  8.1108121E-03
   7103.00  8.4191551E-03
   7103.33  8.7550653E-03
   7103.67  9.1189542E-03
   7104.00  9.5143485E-03
   7104.33  9.9507199E-03
   7104.67  1.0429523E-02
   7105.00  1.0957015E-02
   7105.33  1.1549387E-02
   7105.67  1.2210785E-02
   7106.00  1.2953456E-02
   7106.33  1.3808153E-02
   7106.67  1.4786720E-02
   7107.00  1.5916717E-02
   7107.33  1.7266287E-02
   7107.67  1.8873519E-02
   7108.00  2.0815095E-02
   7108.33  2.3283537E-02
   7108.67  2.6436238E-02
   7109.00  3.0574912E-02
   7109.33  3.6519567E-02
   7109.67  4.5281542E-02
   7110.00  5.8882422E-02
   7110.33  8.2965174E-02
   7110.67  1.1987529E-01
   7111.00  1.5338263E-01
   7111.33  1.5045715E-01
   7111.67  1.4860323E-01
   7112.00  1.7257070E-01
   7112.33  2.2542218E-01
   7112.67  2.7603230E-01
   7113.00  3.1299588E-01
   7113.33  3.5638939E-01
   7113.67  4.1578278E-01
   7114.00  4.5290441E-01
   7114.33  3.7643837E-01
   7114.67  2.7886004E-01
   7115.00  2.1908196E-01
   7115.33  2.0363064E-01
   7115.67  2.1675960E-01
   7116.00  2.4852424E-01
   7116.33  2.8876102E-01
   7116.67  3.1976777E-01
   7117.00  3.1632404E-01
   7117.33  2.7705228E-01
   7117.67  2.3744847E-01
   7118.00  2.0978758E-01
   7118.33  1.9423801E-01
   7118.67  1.8418994E-01
   7119.00  1.7694301E-01
   7119.33  1.7165613E-01
   7119.67  1.6681139E-01
   7120.00  1.6155203E-01
   7120.33  1.5617615E-01
   7120.67  1.5156022E-01
   7121.00  1.4821771E-01
   7121.33  1.4642093E-01
   7121.67  1.4541648E-01
   7122.00  1.4442294E-01
   7122.33  1.4323834E-01
   7122.67  1.4293263E-01
   7123.00  1.4483538E-01
   7123.33  1.5068517E-01
   7123.67  1.6085040E-01
   7124.00  1.7572601E-01
   7124.33  1.9629624E-01
   7124.67  2.2206517E-01
   7125.00  2.5254843E-01
   7125.33  2.8582547E-01
   7125.67  3.1675739E-01
   7126.00  3.4079579E-01
   7126.33  3.5616703E-01
   7126.67  3.6781157E-01
   7127.00  3.7912967E-01
   7127.33  3.9232865E-01
   7127.67  4.0814399E-01
   7128.00  4.2728775E-01
   7128.33  4.5084752E-01
   7128.67  4.7828733E-01
   7129.00  5.0891493E-01
   7129.33  5.4149544E-01
   7129.67  5.7413263E-01
   7130.00  6.0576948E-01
   7130.33  6.3603451E-01
   7130.67  6.6576317E-01
   7131.00  6.9557010E-01
   7131.33  7.2555948E-01
   7131.67  7.5524252E-01
   7132.00  7.8393962E-01
   7132.33  8.1017629E-01
   7132.67  8.3267949E-01
   7133.00  8.5031953E-01
   7133.33  8.6205466E-01
   7133.67  8.6921035E-01
   7134.00  8.7278966E-01
   7134.33  8.7359438E-01
   7134.67  8.7256330E-01
   7135.00  8.6961482E-01
   7135.33  8.6343134E-01
   7135.67  8.5267401E-01
   7136.00  8.3578644E-01
   7136.33  8.1084295E-01
   7136.67  7.7931586E-01
   7137.00  7.4304816E-01
   7137.33  7.0479058E-01
   7137.67  6.6759441E-01
   7138.00  6.3324000E-01
   7138.33  6.0344472E-01
   7138.67  5.7819997E-01
   7139.00  5.5757738E-01
   7139.33  5.4198436E-01
   7139.67  5.3055364E-01
   7140.00  5.2292708E-01
   7140.33  5.1900601E-01
   7140.67  5.1779954E-01
   7141.00  5.1879401E-01
   7141.33  5.2161985E-01
   7141.67  5.2555271E-01
   7142.00  5.3017807E-01
   7142.33  5.3505391E-01
   7142.67  5.3969729E-01
   7143.00  5.4373368E-01
   7143.33  5.4663015E-01
   7143.67  5.4816498E-01
   7144.00  5.4811141E-01
   7144.33  5.4610302E-01
   7144.67  5.4235647E-01
   7145.00  5.3700028E-01
   7145.33  5.3016626E-01
   7145.67  5.2244779E-01
   7146.00  5.1428583E-01
   7146.33  5.0623763E-01
   7146.67  4.9880826E-01
   7147.00  4.9237808E-01
   7147.33  4.8744663E-01
   7147.67  4.8404552E-01
   7148.00  4.8223868E-01
   7148.33  4.8218987E-01
   7148.67  4.8358533E-01
   7149.00  4.8626733E-01
   7149.33  4.9013365E-01
   7149.67  4.9479521E-01
   7150.00  5.0003378E-01
   7150.33  5.0565723E-01
   7150.67  5.1142368E-01
   7151.00  5.1720279E-01
   7151.33  5.2288685E-01
   7151.67  5.2844829E-01
   7152.00  5.3389564E-01
   7152.33  5.3926162E-01
   7152.67  5.4461647E-01
   7153.00  5.5002198E-01
   7153.33  5.5555571E-01
   7153.67  5.6123927E-01
   7154.00  5.6707583E-01
   7154.33  5.7304997E-01
   7154.67  5.7907966E-01
   7155.00  5.8508300E-01
   7155.33  5.9092574E-01
   7155.67  5.9649633E-01
   7156.00  6.0168493E-01
   7156.33  6.0631645E-01
   7156.67  6.1036484E-01
   7157.00  6.1377644E-01
   7157.33  6.1643114E-01
   7157.67  6.1840622E-01
   7158.00  6.1971489E-01
   7158.33  6.2030905E-01
   7158.67  6.2030987E-01
   7159.00  6.1975699E-01
   7159.33  6.1863372E-01
   7159.67  6.1704777E-01
   7160.00  6.1503380E-01
   7160.33  6.1257770E-01
   7160.67  6.0975730E-01
   7161.00  6.0659267E-01
   7161.33  6.0306183E-01
   7161.67  5.9922034E-01
   7162.00  5.9507889E-01
   7162.33  5.9061240E-01
   7162.67  5.8586897E-01
   7163.00  5.8086002E-01
   7163.33  5.7556760E-01
   7163.67  5.7004167E-01
   7164.00  5.6430224E-01
   7164.33  5.5835334E-01
   7164.67  5.5225115E-01
   7165.00  5.4602809E-01
   7165.33  5.3971566E-01
   7165.67  5.3336982E-01
   7166.00  5.2703253E-01
   7166.33  5.2075899E-01
   7166.67  5.1458747E-01
   7167.00  5.0855270E-01
   7167.33  5.0270663E-01
   7167.67  4.9704706E-01
   7168.00  4.9158117E-01
   7168.33  4.8633168E-01
   7168.67  4.8126482E-01
   7169.00  4.7636769E-01
   7169.33  4.7164295E-01
   7169.67  4.6705854E-01
   7170.00  4.6260999E-01
   7170.33  4.5831873E-01
   7170.67  4.5418250E-01
   7171.00  4.5023192E-01
   7171.33  4.4657403E-01
   7171.67  4.4332080E-01
   7172.00  4.4066034E-01
