    FDMNES
    energy     <xanes>
   7097.00  5.2409348E-03
   7097.33  5.3689716E-03
   7097.67  5.5030568E-03
   7098.00  5.6436132E-03
   7098.33  5.7920639E-03
   7098.67  5.9481409E-03
   7099.00  6.1124243E-03
   7099.33  6.2867886E-03
   7099.67  6.4709636E-03
   7100.00  6.6657659E-03
   7100.33  6.8737300E-03
   7100.67  7.0946144E-03
   7101.00  7.3296043E-03
   7101.33  7.5822331E-03
   7101.67  7.8523559E-03
   7102.00  8.1417568E-03
   7102.33  8.4555456E-03
   7102.67  8.7938238E-03
   7103.00  9.1593958E-03
   7103.33  9.5599886E-03
   7103.67  9.9962873E-03
   7104.00  1.0472943E-02
   7104.33  1.1002304E-02
   7104.67  1.1586442E-02
   7105.00  1.2233608E-02
   7105.33  1.2964978E-02
   7105.67  1.3786081E-02
   7106.00  1.4712892E-02
   7106.33  1.5785292E-02
   7106.67  1.7018232E-02
   7107.00  1.8446585E-02
   7107.33  2.0155993E-02
   7107.67  2.2191168E-02
   7108.00  2.4642838E-02
   7108.33  2.7735227E-02
   7108.67  3.1632596E-02
   7109.00  3.6647557E-02
   7109.33  4.3597126E-02
   7109.67  5.3360545E-02
   7110.00  6.7656164E-02
   7110.33  9.1347115E-02
   7110.67  1.2911301E-01
   7111.00  1.8043582E-01
   7111.33  2.3015917E-01
   7111.67  2.7990098E-01
   7112.00  3.4316526E-01
   7112.33  4.2287098E-01
   7112.67  5.0549861E-01
   7113.00  5.6861149E-01
   7113.33  5.6365500E-01
   7113.67  4.9609354E-01
   7114.00  4.0426983E-01
   7114.33  3.2599108E-01
   7114.67  2.6838103E-01
   7115.00  2.2821105E-01
   7115.33  2.0236463E-01
   7115.67  1.8608825E-01
   7116.00  1.7718629E-01
   7116.33  1.7264655E-01
   7116.67  1.6735641E-01
   7117.00  1.5894723E-01
   7117.33  1.4902246E-01
   7117.67  1.4105797E-01
   7118.00  1.3608162E-01
   7118.33  1.3394696E-01
   7118.67  1.3364879E-01
   7119.00  1.3469251E-01
   7119.33  1.3685000E-01
   7119.67  1.3994647E-01
   7120.00  1.4356396E-01
   7120.33  1.4601037E-01
   7120.67  1.4628618E-01
   7121.00  1.4484936E-01
   7121.33  1.4340101E-01
   7121.67  1.4384821E-01
   7122.00  1.4736795E-01
   7122.33  1.5499766E-01
   7122.67  1.6603239E-01
   7123.00  1.7977853E-01
   7123.33  1.9536632E-01
   7123.67  2.1169732E-01
   7124.00  2.2860389E-01
   7124.33  2.4648619E-01
   7124.67  2.6442581E-01
   7125.00  2.7998784E-01
   7125.33  2.8956425E-01
   7125.67  2.9396727E-01
   7126.00  2.9567534E-01
   7126.33  2.9782707E-01
   7126.67  3.0273526E-01
   7127.00  3.1206541E-01
   7127.33  3.2816290E-01
   7127.67  3.5133284E-01
   7128.00  3.8194887E-01
   7128.33  4.2036767E-01
   7128.67  4.6338870E-01
   7129.00  5.0753250E-01
   7129.33  5.4905734E-01
   7129.67  5.8773633E-01
   7130.00  6.2441846E-01
   7130.33  6.5865245E-01
   7130.67  6.8882634E-01
   7131.00  7.1322448E-01
   7131.33  7.3098744E-01
   7131.67  7.4551791E-01
   7132.00  7.6048976E-01
   7132.33  7.8028235E-01
   7132.67  8.0604037E-01
   7133.00  8.3695135E-01
   7133.33  8.6991380E-01
   7133.67  8.9963391E-01
   7134.00  9.2128628E-01
   7134.33  9.2817691E-01
   7134.67  9.1887988E-01
   7135.00  8.9365546E-01
   7135.33  8.5494506E-01
   7135.67  8.1001264E-01
   7136.00  7.6332249E-01
   7136.33  7.1881859E-01
   7136.67  6.7852762E-01
   7137.00  6.4359304E-01
   7137.33  6.1545959E-01
   7137.67  5.9352986E-01
   7138.00  5.7757364E-01
   7138.33  5.6757034E-01
   7138.67  5.6176433E-01
   7139.00  5.5898596E-01
   7139.33  5.5804511E-01
   7139.67  5.5760687E-01
   7140.00  5.5707677E-01
   7140.33  5.5617645E-01
   7140.67  5.5506372E-01
   7141.00  5.5396441E-01
   7141.33  5.5317325E-01
   7141.67  5.5285343E-01
   7142.00  5.5310556E-01
   7142.33  5.5404193E-01
   7142.67  5.5555479E-01
   7143.00  5.5758532E-01
   7143.33  5.6010933E-01
   7143.67  5.6300000E-01
   7144.00  5.6620673E-01
   7144.33  5.6971183E-01
   7144.67  5.7342543E-01
   7145.00  5.7727994E-01
   7145.33  5.8116390E-01
   7145.67  5.8491569E-01
   7146.00  5.8837219E-01
   7146.33  5.9127522E-01
   7146.67  5.9351941E-01
   7147.00  5.9501386E-01
   7147.33  5.9563909E-01
   7147.67  5.9555959E-01
   7148.00  5.9488900E-01
   7148.33  5.9373484E-01
   7148.67  5.9230758E-01
   7149.00  5.9072259E-01
   7149.33  5.8907790E-01
   7149.67  5.8744982E-01
   7150.00  5.8587256E-01
   7150.33  5.8437068E-01
   7150.67  5.8293457E-01
   7151.00  5.8155585E-01
   7151.33  5.8022794E-01
   7151.67  5.7893492E-01
   7152.00  5.7767137E-01
   7152.33  5.7643878E-01
   7152.67  5.7523583E-01
   7153.00  5.7406579E-01
   7153.33  5.7293578E-01
   7153.67  5.7184009E-01
   7154.00  5.7077212E-01
   7154.33  5.6971661E-01
   7154.67  5.6864442E-01
   7155.00  5.6752174E-01
   7155.33  5.6628346E-01
   7155.67  5.6487660E-01
   7156.00  5.6323553E-01
   7156.33  5.6123702E-01
   7156.67  5.5883605E-01
   7157.00  5.5596541E-01
   7157.33  5.5249568E-01
   7157.67  5.4845666E-01
   7158.00  5.4384261E-01
   7158.33  5.3860947E-01
   7158.67  5.3288293E-01
   7159.00  5.2673147E-01
   7159.33  5.2020666E-01
   7159.67  5.1345054E-01
   7160.00  5.0655187E-01
   7160.33  4.9960558E-01
   7160.67  4.9271373E-01
   7161.00  4.8595660E-01
   7161.33  4.7944485E-01
   7161.67  4.7322535E-01
   7162.00  4.6735963E-01
   7162.33  4.6196371E-01
   7162.67  4.5703668E-01
   7163.00  4.5261167E-01
   7163.33  4.4877928E-01
   7163.67  4.4548366E-01
   7164.00  4.4272228E-01
   7164.33  4.4054447E-01
   7164.67  4.3885924E-01
   7165.00  4.3763849E-01
   7165.33  4.3689817E-01
   7165.67  4.3654391E-01
   7166.00  4.3653744E-01
   7166.33  4.3686702E-01
   7166.67  4.3744313E-01
   7167.00  4.3822004E-01
   7167.33  4.3915895E-01
   7167.67  4.4017840E-01
   7168.00  4.4122387E-01
   7168.33  4.4223258E-01
   7168.67  4.4315633E-01
   7169.00  4.4395702E-01
   7169.33  4.4458160E-01
   7169.67  4.4503073E-01
   7170.00  4.4530074E-01
   7170.33  4.4538044E-01
   7170.67  4.4531393E-01
   7171.00  4.4512968E-01
   7171.33  4.4486073E-01
   7171.67  4.4456908E-01
   7172.00  4.4430630E-01
