    FDMNES
    energy     <xanes>
   7097.00  5.1992403E-03
   7097.33  5.3252588E-03
   7097.67  5.4571397E-03
   7098.00  5.5952860E-03
   7098.33  5.7410647E-03
   7098.67  5.8942058E-03
   7099.00  6.0552592E-03
   7099.33  6.2260160E-03
   7099.67  6.4062003E-03
   7100.00  6.5965807E-03
   7100.33  6.7995647E-03
   7100.67  7.0148957E-03
   7101.00  7.2436817E-03
   7101.33  7.4892547E-03
   7101.67  7.7514360E-03
   7102.00  8.0318788E-03
   7102.33  8.3353599E-03
   7102.67  8.6619064E-03
   7103.00  9.0140899E-03
   7103.33  9.3990568E-03
   7103.67  9.8173260E-03
   7104.00  1.0273108E-02
   7104.33  1.0777672E-02
   7104.67  1.1332702E-02
   7105.00  1.1945547E-02
   7105.33  1.2635205E-02
   7105.67  1.3406226E-02
   7106.00  1.4272544E-02
   7106.33  1.5269145E-02
   7106.67  1.6408218E-02
   7107.00  1.7719335E-02
   7107.33  1.9275309E-02
   7107.67  2.1111683E-02
   7108.00  2.3302333E-02
   7108.33  2.6029276E-02
   7108.67  2.9417260E-02
   7109.00  3.3705528E-02
   7109.33  3.9510873E-02
   7109.67  4.7453371E-02
   7110.00  5.8736177E-02
   7110.33  7.6744364E-02
   7110.67  1.0511881E-01
   7111.00  1.4625640E-01
   7111.33  1.9579752E-01
   7111.67  2.4648797E-01
   7112.00  3.0270473E-01
   7112.33  3.7285714E-01
   7112.67  4.5236637E-01
   7113.00  5.2941577E-01
   7113.33  5.7905439E-01
   7113.67  5.7668194E-01
   7114.00  5.0947468E-01
   7114.33  4.0719211E-01
   7114.67  3.1868300E-01
   7115.00  2.5564195E-01
   7115.33  2.1708213E-01
   7115.67  1.9393112E-01
   7116.00  1.8144723E-01
   7116.33  1.7456516E-01
   7116.67  1.6776787E-01
   7117.00  1.5983067E-01
   7117.33  1.5142291E-01
   7117.67  1.4381813E-01
   7118.00  1.3808645E-01
   7118.33  1.3438978E-01
   7118.67  1.3183597E-01
   7119.00  1.3046854E-01
   7119.33  1.3044269E-01
   7119.67  1.3115104E-01
   7120.00  1.3234294E-01
   7120.33  1.3419926E-01
   7120.67  1.3655376E-01
   7121.00  1.3883744E-01
   7121.33  1.4054424E-01
   7121.67  1.4225392E-01
   7122.00  1.4507128E-01
   7122.33  1.5061618E-01
   7122.67  1.5874178E-01
   7123.00  1.6884957E-01
   7123.33  1.8124971E-01
   7123.67  1.9654882E-01
   7124.00  2.1507613E-01
   7124.33  2.3609597E-01
   7124.67  2.5672710E-01
   7125.00  2.7417803E-01
   7125.33  2.8599425E-01
   7125.67  2.9413437E-01
   7126.00  3.0131832E-01
   7126.33  3.1053585E-01
   7126.67  3.2331126E-01
   7127.00  3.4072462E-01
   7127.33  3.6471106E-01
   7127.67  3.9567717E-01
   7128.00  4.3399088E-01
   7128.33  4.7868689E-01
   7128.67  5.2468588E-01
   7129.00  5.6788506E-01
   7129.33  6.0549488E-01
   7129.67  6.3879407E-01
   7130.00  6.6859037E-01
   7130.33  6.9421716E-01
   7130.67  7.1541710E-01
   7131.00  7.3217107E-01
   7131.33  7.4540778E-01
   7131.67  7.5812381E-01
   7132.00  7.7284507E-01
   7132.33  7.9189899E-01
   7132.67  8.1432246E-01
   7133.00  8.3774052E-01
   7133.33  8.5757337E-01
   7133.67  8.6991051E-01
   7134.00  8.7222562E-01
   7134.33  8.6293009E-01
   7134.67  8.4544592E-01
   7135.00  8.2190758E-01
   7135.33  7.9327762E-01
   7135.67  7.6114241E-01
   7136.00  7.2676835E-01
   7136.33  6.9222675E-01
   7136.67  6.5969565E-01
   7137.00  6.3063009E-01
   7137.33  6.0669011E-01
   7137.67  5.8786876E-01
   7138.00  5.7431235E-01
   7138.33  5.6640070E-01
   7138.67  5.6273576E-01
   7139.00  5.6226221E-01
   7139.33  5.6374563E-01
   7139.67  5.6567575E-01
   7140.00  5.6733702E-01
   7140.33  5.6835790E-01
   7140.67  5.6892370E-01
   7141.00  5.6927666E-01
   7141.33  5.6969911E-01
   7141.67  5.7036215E-01
   7142.00  5.7132888E-01
   7142.33  5.7262946E-01
   7142.67  5.7417217E-01
   7143.00  5.7590001E-01
   7143.33  5.7777164E-01
   7143.67  5.7972943E-01
   7144.00  5.8174581E-01
   7144.33  5.8379013E-01
   7144.67  5.8581346E-01
   7145.00  5.8776308E-01
   7145.33  5.8954618E-01
   7145.67  5.9110197E-01
   7146.00  5.9236715E-01
   7146.33  5.9323311E-01
   7146.67  5.9369078E-01
   7147.00  5.9371199E-01
   7147.33  5.9323477E-01
   7147.67  5.9233248E-01
   7148.00  5.9103651E-01
   7148.33  5.8935964E-01
   7148.67  5.8741069E-01
   7149.00  5.8524181E-01
   7149.33  5.8288516E-01
   7149.67  5.8040870E-01
   7150.00  5.7785291E-01
   7150.33  5.7525543E-01
   7150.67  5.7265200E-01
   7151.00  5.7006873E-01
   7151.33  5.6754909E-01
   7151.67  5.6513173E-01
   7152.00  5.6286405E-01
   7152.33  5.6083709E-01
   7152.67  5.5909504E-01
   7153.00  5.5769972E-01
   7153.33  5.5676966E-01
   7153.67  5.5630659E-01
   7154.00  5.5633868E-01
   7154.33  5.5693243E-01
   7154.67  5.5799327E-01
   7155.00  5.5946269E-01
   7155.33  5.6127439E-01
   7155.67  5.6324950E-01
   7156.00  5.6524170E-01
   7156.33  5.6703574E-01
   7156.67  5.6844645E-01
   7157.00  5.6929583E-01
   7157.33  5.6929788E-01
   7157.67  5.6838891E-01
   7158.00  5.6647267E-01
   7158.33  5.6335962E-01
   7158.67  5.5918900E-01
   7159.00  5.5401296E-01
   7159.33  5.4782678E-01
   7159.67  5.4088936E-01
   7160.00  5.3334763E-01
   7160.33  5.2533122E-01
   7160.67  5.1707253E-01
   7161.00  5.0871879E-01
   7161.33  5.0043980E-01
   7161.67  4.9236815E-01
   7162.00  4.8459955E-01
   7162.33  4.7726924E-01
   7162.67  4.7039887E-01
   7163.00  4.6403430E-01
   7163.33  4.5827652E-01
   7163.67  4.5307203E-01
   7164.00  4.4841914E-01
   7164.33  4.4437025E-01
   7164.67  4.4083561E-01
   7165.00  4.3779006E-01
   7165.33  4.3525519E-01
   7165.67  4.3313673E-01
   7166.00  4.3140141E-01
   7166.33  4.3005176E-01
   7166.67  4.2900354E-01
   7167.00  4.2822046E-01
   7167.33  4.2768744E-01
   7167.67  4.2733528E-01
   7168.00  4.2712911E-01
   7168.33  4.2704235E-01
   7168.67  4.2702355E-01
   7169.00  4.2704293E-01
   7169.33  4.2707297E-01
   7169.67  4.2709131E-01
   7170.00  4.2708611E-01
   7170.33  4.2704684E-01
   7170.67  4.2697747E-01
   7171.00  4.2688327E-01
   7171.33  4.2677304E-01
   7171.67  4.2666099E-01
   7172.00  4.2655589E-01
