    FDMNES
    energy     <xanes>
   7097.00  4.2628984E-03
   7097.33  4.3508117E-03
   7097.67  4.4424371E-03
   7098.00  4.5380202E-03
   7098.33  4.6384110E-03
   7098.67  4.7434272E-03
   7099.00  4.8534032E-03
   7099.33  4.9694473E-03
   7099.67  5.0913731E-03
   7100.00  5.2196487E-03
   7100.33  5.3557580E-03
   7100.67  5.4995278E-03
   7101.00  5.6516344E-03
   7101.33  5.8141282E-03
   7101.67  5.9868879E-03
   7102.00  6.1709273E-03
   7102.33  6.3691899E-03
   7102.67  6.5816903E-03
   7103.00  6.8100190E-03
   7103.33  7.0586004E-03
   7103.67  7.3277774E-03
   7104.00  7.6201855E-03
   7104.33  7.9428668E-03
   7104.67  8.2969514E-03
   7105.00  8.6871172E-03
   7105.33  9.1254177E-03
   7105.67  9.6149551E-03
   7106.00  1.0164805E-02
   7106.33  1.0797673E-02
   7106.67  1.1522052E-02
   7107.00  1.2357809E-02
   7107.33  1.3353765E-02
   7107.67  1.4535431E-02
   7108.00  1.5954546E-02
   7108.33  1.7738863E-02
   7108.67  1.9981597E-02
   7109.00  2.2859671E-02
   7109.33  2.6833273E-02
   7109.67  3.2389981E-02
   7110.00  4.0479201E-02
   7110.33  5.3820344E-02
   7110.67  7.5511729E-02
   7111.00  1.0692849E-01
   7111.33  1.3734505E-01
   7111.67  1.7122999E-01
   7112.00  2.2840230E-01
   7112.33  2.8150485E-01
   7112.67  2.8433042E-01
   7113.00  2.6963540E-01
   7113.33  2.4250666E-01
   7113.67  1.9498779E-01
   7114.00  1.6025133E-01
   7114.33  1.5401612E-01
   7114.67  1.5881620E-01
   7115.00  1.6007614E-01
   7115.33  1.5640131E-01
   7115.67  1.4564594E-01
   7116.00  1.3299305E-01
   7116.33  1.2284116E-01
   7116.67  1.0916180E-01
   7117.00  9.2403872E-02
   7117.33  7.8875954E-02
   7117.67  7.0885434E-02
   7118.00  6.7522423E-02
   7118.33  6.7692691E-02
   7118.67  6.9687505E-02
   7119.00  7.2320726E-02
   7119.33  7.4607694E-02
   7119.67  7.6395107E-02
   7120.00  7.7532309E-02
   7120.33  7.8215741E-02
   7120.67  7.9213689E-02
   7121.00  8.1035005E-02
   7121.33  8.4308006E-02
   7121.67  8.9130190E-02
   7122.00  9.5498963E-02
   7122.33  1.0305755E-01
   7122.67  1.1097208E-01
   7123.00  1.1921798E-01
   7123.33  1.2856563E-01
   7123.67  1.3956848E-01
   7124.00  1.5257728E-01
   7124.33  1.6786938E-01
   7124.67  1.8494154E-01
   7125.00  2.0383116E-01
   7125.33  2.2543507E-01
   7125.67  2.4986016E-01
   7126.00  2.7671635E-01
   7126.33  3.0533537E-01
   7126.67  3.3475396E-01
   7127.00  3.6427769E-01
   7127.33  3.9367686E-01
   7127.67  4.2383450E-01
   7128.00  4.5608692E-01
   7128.33  4.9256857E-01
   7128.67  5.3267554E-01
   7129.00  5.7343560E-01
   7129.33  6.0767376E-01
   7129.67  6.2878198E-01
   7130.00  6.3276554E-01
   7130.33  6.1876238E-01
   7130.67  5.9543252E-01
   7131.00  5.6964066E-01
   7131.33  5.4743500E-01
   7131.67  5.3066503E-01
   7132.00  5.1965802E-01
   7132.33  5.1480333E-01
   7132.67  5.1390601E-01
   7133.00  5.1475576E-01
   7133.33  5.1517975E-01
   7133.67  5.1440911E-01
   7134.00  5.1254545E-01
   7134.33  5.1002135E-01
   7134.67  5.0747800E-01
   7135.00  5.0529485E-01
   7135.33  5.0378445E-01
   7135.67  5.0287665E-01
   7136.00  5.0240334E-01
   7136.33  5.0203453E-01
   7136.67  5.0136820E-01
   7137.00  5.0014383E-01
   7137.33  4.9818765E-01
   7137.67  4.9576514E-01
   7138.00  4.9321106E-01
   7138.33  4.9102774E-01
   7138.67  4.8956223E-01
   7139.00  4.8900939E-01
   7139.33  4.8953357E-01
   7139.67  4.9094986E-01
   7140.00  4.9322594E-01
   7140.33  4.9657107E-01
   7140.67  5.0112348E-01
   7141.00  5.0717729E-01
   7141.33  5.1519552E-01
   7141.67  5.2486640E-01
   7142.00  5.3571363E-01
   7142.33  5.4678546E-01
   7142.67  5.5690738E-01
   7143.00  5.6526255E-01
   7143.33  5.7108542E-01
   7143.67  5.7472573E-01
   7144.00  5.7657030E-01
   7144.33  5.7708917E-01
   7144.67  5.7703064E-01
   7145.00  5.7678655E-01
   7145.33  5.7668425E-01
   7145.67  5.7691738E-01
   7146.00  5.7757502E-01
   7146.33  5.7871045E-01
   7146.67  5.8017608E-01
   7147.00  5.8183237E-01
   7147.33  5.8347675E-01
   7147.67  5.8490724E-01
   7148.00  5.8597966E-01
   7148.33  5.8654480E-01
   7148.67  5.8668326E-01
   7149.00  5.8647409E-01
   7149.33  5.8600094E-01
   7149.67  5.8543056E-01
   7150.00  5.8488941E-01
   7150.33  5.8452328E-01
   7150.67  5.8439766E-01
   7151.00  5.8456963E-01
   7151.33  5.8514832E-01
   7151.67  5.8614985E-01
   7152.00  5.8762419E-01
   7152.33  5.8969460E-01
   7152.67  5.9235091E-01
   7153.00  5.9563841E-01
   7153.33  5.9968939E-01
   7153.67  6.0445706E-01
   7154.00  6.0996281E-01
   7154.33  6.1630708E-01
   7154.67  6.2337849E-01
   7155.00  6.3113595E-01
   7155.33  6.3957307E-01
   7155.67  6.4849215E-01
   7156.00  6.5775616E-01
   7156.33  6.6719247E-01
   7156.67  6.7656329E-01
   7157.00  6.8566786E-01
   7157.33  6.9420603E-01
   7157.67  7.0201197E-01
   7158.00  7.0890491E-01
   7158.33  7.1456557E-01
   7158.67  7.1898904E-01
   7159.00  7.2209371E-01
   7159.33  7.2366614E-01
   7159.67  7.2388843E-01
   7160.00  7.2281115E-01
   7160.33  7.2038490E-01
   7160.67  7.1689807E-01
   7161.00  7.1248630E-01
   7161.33  7.0721701E-01
   7161.67  7.0134748E-01
   7162.00  6.9501136E-01
   7162.33  6.8831185E-01
   7162.67  6.8141563E-01
   7163.00  6.7441471E-01
   7163.33  6.6739279E-01
   7163.67  6.6041586E-01
   7164.00  6.5352156E-01
   7164.33  6.4674840E-01
   7164.67  6.4009035E-01
   7165.00  6.3354250E-01
   7165.33  6.2710211E-01
   7165.67  6.2073908E-01
   7166.00  6.1443921E-01
   7166.33  6.0819694E-01
   7166.67  6.0200126E-01
   7167.00  5.9585450E-01
   7167.33  5.8977223E-01
   7167.67  5.8376112E-01
   7168.00  5.7783645E-01
   7168.33  5.7203107E-01
   7168.67  5.6635129E-01
   7169.00  5.6081324E-01
   7169.33  5.5545426E-01
   7169.67  5.5027111E-01
   7170.00  5.4527930E-01
   7170.33  5.4052719E-01
   7170.67  5.3601777E-01
   7171.00  5.3178836E-01
   7171.33  5.2795382E-01
   7171.67  5.2459766E-01
   7172.00  5.2188294E-01
