    FDMNES
    energy     <xanes>
   7097.00  4.5773198E-03
   7097.33  4.6739198E-03
   7097.67  4.7743791E-03
   7098.00  4.8789326E-03
   7098.33  4.9884303E-03
   7098.67  5.1026554E-03
   7099.00  5.2219218E-03
   7099.33  5.3473155E-03
   7099.67  5.4786081E-03
   7100.00  5.6162311E-03
   7100.33  5.7616080E-03
   7100.67  5.9145125E-03
   7101.00  6.0755570E-03
   7101.33  6.2466674E-03
   7101.67  6.4276510E-03
   7102.00  6.6194124E-03
   7102.33  6.8246614E-03
   7102.67  7.0433116E-03
   7103.00  7.2767671E-03
   7103.33  7.5290335E-03
   7103.67  7.8003026E-03
   7104.00  8.0928930E-03
   7104.33  8.4131148E-03
   7104.67  8.7618664E-03
   7105.00  9.1432946E-03
   7105.33  9.5682110E-03
   7105.67  1.0039383E-02
   7106.00  1.0565054E-02
   7106.33  1.1165995E-02
   7106.67  1.1850427E-02
   7107.00  1.2637307E-02
   7107.33  1.3573543E-02
   7107.67  1.4686148E-02
   7108.00  1.6028925E-02
   7108.33  1.7736725E-02
   7108.67  1.9920851E-02
   7109.00  2.2792372E-02
   7109.33  2.6918860E-02
   7109.67  3.2984139E-02
   7110.00  4.2346753E-02
   7110.33  5.8989331E-02
   7110.67  8.7118541E-02
   7111.00  1.2564233E-01
   7111.33  1.4697389E-01
   7111.67  1.3843903E-01
   7112.00  1.2203005E-01
   7112.33  1.1561374E-01
   7112.67  1.1879088E-01
   7113.00  1.2753687E-01
   7113.33  1.3932851E-01
   7113.67  1.5508806E-01
   7114.00  1.7055977E-01
   7114.33  1.6733612E-01
   7114.67  1.4411019E-01
   7115.00  1.1697525E-01
   7115.33  9.9372404E-02
   7115.67  9.0742360E-02
   7116.00  8.9327453E-02
   7116.33  9.4709084E-02
   7116.67  1.0603261E-01
   7117.00  1.2362598E-01
   7117.33  1.4830787E-01
   7117.67  1.7810072E-01
   7118.00  2.1091066E-01
   7118.33  2.4368252E-01
   7118.67  2.7295077E-01
   7119.00  2.9537698E-01
   7119.33  3.0821440E-01
   7119.67  3.1580829E-01
   7120.00  3.2303778E-01
   7120.33  3.3556895E-01
   7120.67  3.5433730E-01
   7121.00  3.7594633E-01
   7121.33  3.9297977E-01
   7121.67  4.0174383E-01
   7122.00  4.0298780E-01
   7122.33  4.0008644E-01
   7122.67  3.9694033E-01
   7123.00  3.9427033E-01
   7123.33  3.9111784E-01
   7123.67  3.8720075E-01
   7124.00  3.8309834E-01
   7124.33  3.7945959E-01
   7124.67  3.7641782E-01
   7125.00  3.7419889E-01
   7125.33  3.7349345E-01
   7125.67  3.7485379E-01
   7126.00  3.7915275E-01
   7126.33  3.8787207E-01
   7126.67  4.0032777E-01
   7127.00  4.1476805E-01
   7127.33  4.2803306E-01
   7127.67  4.3814411E-01
   7128.00  4.4505463E-01
   7128.33  4.5013990E-01
   7128.67  4.5552914E-01
   7129.00  4.6244386E-01
   7129.33  4.7233718E-01
   7129.67  4.8580572E-01
   7130.00  5.0305654E-01
   7130.33  5.2403400E-01
   7130.67  5.4793459E-01
   7131.00  5.7484212E-01
   7131.33  6.0525723E-01
   7131.67  6.3808058E-01
   7132.00  6.7155599E-01
   7132.33  7.0215524E-01
   7132.67  7.2708257E-01
   7133.00  7.4508191E-01
   7133.33  7.5607652E-01
   7133.67  7.6283138E-01
   7134.00  7.6674110E-01
   7134.33  7.6771257E-01
   7134.67  7.6532434E-01
   7135.00  7.5914262E-01
   7135.33  7.4894437E-01
   7135.67  7.3590360E-01
   7136.00  7.2074072E-01
   7136.33  7.0401955E-01
   7136.67  6.8650048E-01
   7137.00  6.6863834E-01
   7137.33  6.5107450E-01
   7137.67  6.3453908E-01
   7138.00  6.1976702E-01
   7138.33  6.0788704E-01
   7138.67  5.9916377E-01
   7139.00  5.9378215E-01
   7139.33  5.9183562E-01
   7139.67  5.9212144E-01
   7140.00  5.9364108E-01
   7140.33  5.9515934E-01
   7140.67  5.9568003E-01
   7141.00  5.9471712E-01
   7141.33  5.9197925E-01
   7141.67  5.8796402E-01
   7142.00  5.8309263E-01
   7142.33  5.7783419E-01
   7142.67  5.7265276E-01
   7143.00  5.6779431E-01
   7143.33  5.6346940E-01
   7143.67  5.5965638E-01
   7144.00  5.5633283E-01
   7144.33  5.5350513E-01
   7144.67  5.5107459E-01
   7145.00  5.4901789E-01
   7145.33  5.4736403E-01
   7145.67  5.4605043E-01
   7146.00  5.4504872E-01
   7146.33  5.4433459E-01
   7146.67  5.4379748E-01
   7147.00  5.4335708E-01
   7147.33  5.4290779E-01
   7147.67  5.4233900E-01
   7148.00  5.4155748E-01
   7148.33  5.4043334E-01
   7148.67  5.3894316E-01
   7149.00  5.3706565E-01
   7149.33  5.3477091E-01
   7149.67  5.3215975E-01
   7150.00  5.2929903E-01
   7150.33  5.2625288E-01
   7150.67  5.2311679E-01
   7151.00  5.1993629E-01
   7151.33  5.1673167E-01
   7151.67  5.1349452E-01
   7152.00  5.1019163E-01
   7152.33  5.0675112E-01
   7152.67  5.0312690E-01
   7153.00  4.9927473E-01
   7153.33  4.9513284E-01
   7153.67  4.9073763E-01
   7154.00  4.8612440E-01
   7154.33  4.8134896E-01
   7154.67  4.7652452E-01
   7155.00  4.7173793E-01
   7155.33  4.6710024E-01
   7155.67  4.6267212E-01
   7156.00  4.5850128E-01
   7156.33  4.5465720E-01
   7156.67  4.5111512E-01
   7157.00  4.4787112E-01
   7157.33  4.4494383E-01
   7157.67  4.4227093E-01
   7158.00  4.3982209E-01
   7158.33  4.3757870E-01
   7158.67  4.3547176E-01
   7159.00  4.3345930E-01
   7159.33  4.3150175E-01
   7159.67  4.2955508E-01
   7160.00  4.2759265E-01
   7160.33  4.2559461E-01
   7160.67  4.2357755E-01
   7161.00  4.2157464E-01
   7161.33  4.1965501E-01
   7161.67  4.1788539E-01
   7162.00  4.1633793E-01
   7162.33  4.1513060E-01
   7162.67  4.1428801E-01
   7163.00  4.1384375E-01
   7163.33  4.1386027E-01
   7163.67  4.1426854E-01
   7164.00  4.1503597E-01
   7164.33  4.1614773E-01
   7164.67  4.1750206E-01
   7165.00  4.1904136E-01
   7165.33  4.2071490E-01
   7165.67  4.2244797E-01
   7166.00  4.2419620E-01
   7166.33  4.2591366E-01
   7166.67  4.2757088E-01
   7167.00  4.2914627E-01
   7167.33  4.3060862E-01
   7167.67  4.3195842E-01
   7168.00  4.3319020E-01
   7168.33  4.3428852E-01
   7168.67  4.3527377E-01
   7169.00  4.3615499E-01
   7169.33  4.3693572E-01
   7169.67  4.3764490E-01
   7170.00  4.3829872E-01
   7170.33  4.3891065E-01
   7170.67  4.3950032E-01
   7171.00  4.4007552E-01
   7171.33  4.4063241E-01
   7171.67  4.4115034E-01
   7172.00  4.4158808E-01
