    FDMNES
    energy     <xanes>
   7097.00  4.6569069E-03
   7097.33  4.7563478E-03
   7097.67  4.8598355E-03
   7098.00  4.9676240E-03
   7098.33  5.0806176E-03
   7098.67  5.1985999E-03
   7099.00  5.3219142E-03
   7099.33  5.4517272E-03
   7099.67  5.5878156E-03
   7100.00  5.7306572E-03
   7100.33  5.8817998E-03
   7100.67  6.0410316E-03
   7101.00  6.2090412E-03
   7101.33  6.3879528E-03
   7101.67  6.5776077E-03
   7102.00  6.7790405E-03
   7102.33  6.9952911E-03
   7102.67  7.2263478E-03
   7103.00  7.4738460E-03
   7103.33  7.7423660E-03
   7103.67  8.0322633E-03
   7104.00  8.3462881E-03
   7104.33  8.6918048E-03
   7104.67  9.0700757E-03
   7105.00  9.4861003E-03
   7105.33  9.9527423E-03
   7105.67  1.0473611E-02
   7106.00  1.1058747E-02
   7106.33  1.1733192E-02
   7106.67  1.2507218E-02
   7107.00  1.3403832E-02
   7107.33  1.4479492E-02
   7107.67  1.5766366E-02
   7108.00  1.7327824E-02
   7108.33  1.9320683E-02
   7108.67  2.1867526E-02
   7109.00  2.5197692E-02
   7109.33  2.9909974E-02
   7109.67  3.6661130E-02
   7110.00  4.6722361E-02
   7110.33  6.3783682E-02
   7110.67  9.2799134E-02
   7111.00  1.4061520E-01
   7111.33  2.0963419E-01
   7111.67  2.6404871E-01
   7112.00  2.6645971E-01
   7112.33  2.1998903E-01
   7112.67  1.6091105E-01
   7113.00  1.1693259E-01
   7113.33  9.2138036E-02
   7113.67  7.6647863E-02
   7114.00  6.6546042E-02
   7114.33  6.0529501E-02
   7114.67  5.7100870E-02
   7115.00  5.5578000E-02
   7115.33  5.5678511E-02
   7115.67  5.6996604E-02
   7116.00  5.9388196E-02
   7116.33  6.2776923E-02
   7116.67  6.6829699E-02
   7117.00  7.1408348E-02
   7117.33  7.6708657E-02
   7117.67  8.3165709E-02
   7118.00  9.1334699E-02
   7118.33  1.0176594E-01
   7118.67  1.1393755E-01
   7119.00  1.2757582E-01
   7119.33  1.4317813E-01
   7119.67  1.6102846E-01
   7120.00  1.8123544E-01
   7120.33  2.0431280E-01
   7120.67  2.3092134E-01
   7121.00  2.6232288E-01
   7121.33  3.0053902E-01
   7121.67  3.4579809E-01
   7122.00  3.9898421E-01
   7122.33  4.6154317E-01
   7122.67  5.3004450E-01
   7123.00  5.9887140E-01
   7123.33  6.5739425E-01
   7123.67  6.9871594E-01
   7124.00  7.2049020E-01
   7124.33  7.2320395E-01
   7124.67  7.1424526E-01
   7125.00  6.9825318E-01
   7125.33  6.7933427E-01
   7125.67  6.6051172E-01
   7126.00  6.4237357E-01
   7126.33  6.2399008E-01
   7126.67  6.0422928E-01
   7127.00  5.8312301E-01
   7127.33  5.6244998E-01
   7127.67  5.4486853E-01
   7128.00  5.3239992E-01
   7128.33  5.2706983E-01
   7128.67  5.2813496E-01
   7129.00  5.3496733E-01
   7129.33  5.4692549E-01
   7129.67  5.6192538E-01
   7130.00  5.7864184E-01
   7130.33  5.9593546E-01
   7130.67  6.1314573E-01
   7131.00  6.3014523E-01
   7131.33  6.4679516E-01
   7131.67  6.6274286E-01
   7132.00  6.7736521E-01
   7132.33  6.8954837E-01
   7132.67  6.9896217E-01
   7133.00  7.0556992E-01
   7133.33  7.0984773E-01
   7133.67  7.1335305E-01
   7134.00  7.1689853E-01
   7134.33  7.2034083E-01
   7134.67  7.2268649E-01
   7135.00  7.2295717E-01
   7135.33  7.2002803E-01
   7135.67  7.1410220E-01
   7136.00  7.0555659E-01
   7136.33  6.9506087E-01
   7136.67  6.8393120E-01
   7137.00  6.7304876E-01
   7137.33  6.6328346E-01
   7137.67  6.5486638E-01
   7138.00  6.4781053E-01
   7138.33  6.4203368E-01
   7138.67  6.3703786E-01
   7139.00  6.3249780E-01
   7139.33  6.2810444E-01
   7139.67  6.2363322E-01
   7140.00  6.1904133E-01
   7140.33  6.1434651E-01
   7140.67  6.0956938E-01
   7141.00  6.0472542E-01
   7141.33  5.9984227E-01
   7141.67  5.9495632E-01
   7142.00  5.9008847E-01
   7142.33  5.8525878E-01
   7142.67  5.8047446E-01
   7143.00  5.7574729E-01
   7143.33  5.7110775E-01
   7143.67  5.6657569E-01
   7144.00  5.6217946E-01
   7144.33  5.5796337E-01
   7144.67  5.5391073E-01
   7145.00  5.5000259E-01
   7145.33  5.4620512E-01
   7145.67  5.4244213E-01
   7146.00  5.3865238E-01
   7146.33  5.3475318E-01
   7146.67  5.3069420E-01
   7147.00  5.2643138E-01
   7147.33  5.2189469E-01
   7147.67  5.1708678E-01
   7148.00  5.1199220E-01
   7148.33  5.0656331E-01
   7148.67  5.0083335E-01
   7149.00  4.9480370E-01
   7149.33  4.8844297E-01
   7149.67  4.8179631E-01
   7150.00  4.7487296E-01
   7150.33  4.6765157E-01
   7150.67  4.6017723E-01
   7151.00  4.5246005E-01
   7151.33  4.4448238E-01
   7151.67  4.3628447E-01
   7152.00  4.2787571E-01
   7152.33  4.1924125E-01
   7152.67  4.1042148E-01
   7153.00  4.0143587E-01
   7153.33  3.9228538E-01
   7153.67  3.8300606E-01
   7154.00  3.7361649E-01
   7154.33  3.6413280E-01
   7154.67  3.5459840E-01
   7155.00  3.4504668E-01
   7155.33  3.3552530E-01
   7155.67  3.2608256E-01
   7156.00  3.1676686E-01
   7156.33  3.0765726E-01
   7156.67  2.9878825E-01
   7157.00  2.9021098E-01
   7157.33  2.8202971E-01
   7157.67  2.7426259E-01
   7158.00  2.6696625E-01
   7158.33  2.6027930E-01
   7158.67  2.5421208E-01
   7159.00  2.4883737E-01
   7159.33  2.4434035E-01
   7159.67  2.4071038E-01
   7160.00  2.3801693E-01
   7160.33  2.3645427E-01
   7160.67  2.3594819E-01
   7161.00  2.3652717E-01
   7161.33  2.3834251E-01
   7161.67  2.4124994E-01
   7162.00  2.4522727E-01
   7162.33  2.5036066E-01
   7162.67  2.5646094E-01
   7163.00  2.6345925E-01
   7163.33  2.7135062E-01
   7163.67  2.7989598E-01
   7164.00  2.8895317E-01
   7164.33  2.9837899E-01
   7164.67  3.0793845E-01
   7165.00  3.1748957E-01
   7165.33  3.2688147E-01
   7165.67  3.3603314E-01
   7166.00  3.4488986E-01
   7166.33  3.5338050E-01
   7166.67  3.6154522E-01
   7167.00  3.6940110E-01
   7167.33  3.7694551E-01
   7167.67  3.8424855E-01
   7168.00  3.9133801E-01
   7168.33  3.9821729E-01
   7168.67  4.0492820E-01
   7169.00  4.1147915E-01
   7169.33  4.1785276E-01
   7169.67  4.2406280E-01
   7170.00  4.3009679E-01
   7170.33  4.3590609E-01
   7170.67  4.4147779E-01
   7171.00  4.4676062E-01
   7171.33  4.5160608E-01
   7171.67  4.5588275E-01
   7172.00  4.5935964E-01
