    FDMNES
    energy     <xanes>
   7097.00  4.2997312E-03
   7097.33  4.3902717E-03
   7097.67  4.4845058E-03
   7098.00  4.5826683E-03
   7098.33  4.6855896E-03
   7098.67  4.7930764E-03
   7099.00  4.9054469E-03
   7099.33  5.0237756E-03
   7099.67  5.1478641E-03
   7100.00  5.2781565E-03
   7100.33  5.4160830E-03
   7100.67  5.5614570E-03
   7101.00  5.7149202E-03
   7101.33  5.8784415E-03
   7101.67  6.0518853E-03
   7102.00  6.2362174E-03
   7102.33  6.4342627E-03
   7102.67  6.6460248E-03
   7103.00  6.8730321E-03
   7103.33  7.1195506E-03
   7103.67  7.3859287E-03
   7104.00  7.6747385E-03
   7104.33  7.9928518E-03
   7104.67  8.3414685E-03
   7105.00  8.7252692E-03
   7105.33  9.1562822E-03
   7105.67  9.6379216E-03
   7106.00  1.0179616E-02
   7106.33  1.0804880E-02
   7106.67  1.1523494E-02
   7107.00  1.2357261E-02
   7107.33  1.3359788E-02
   7107.67  1.4562363E-02
   7108.00  1.6026518E-02
   7108.33  1.7905633E-02
   7108.67  2.0325091E-02
   7109.00  2.3521288E-02
   7109.33  2.8125321E-02
   7109.67  3.4882682E-02
   7110.00  4.5262674E-02
   7110.33  6.3474902E-02
   7110.67  9.3337187E-02
   7111.00  1.3249398E-01
   7111.33  1.6418509E-01
   7111.67  1.8494601E-01
   7112.00  1.9742335E-01
   7112.33  1.9906352E-01
   7112.67  1.8727719E-01
   7113.00  1.6433154E-01
   7113.33  1.3941119E-01
   7113.67  1.2049631E-01
   7114.00  1.0850866E-01
   7114.33  9.9616047E-02
   7114.67  9.0455254E-02
   7115.00  8.2579144E-02
   7115.33  7.7369590E-02
   7115.67  7.4851699E-02
   7116.00  7.5385684E-02
   7116.33  7.9205314E-02
   7116.67  8.4741198E-02
   7117.00  9.0336933E-02
   7117.33  9.4979357E-02
   7117.67  9.9179132E-02
   7118.00  1.0347500E-01
   7118.33  1.0866874E-01
   7118.67  1.1534192E-01
   7119.00  1.2391255E-01
   7119.33  1.3474538E-01
   7119.67  1.4711436E-01
   7120.00  1.6023231E-01
   7120.33  1.7344818E-01
   7120.67  1.8706818E-01
   7121.00  2.0199247E-01
   7121.33  2.1928450E-01
   7121.67  2.3851199E-01
   7122.00  2.5898691E-01
   7122.33  2.7999065E-01
   7122.67  3.0081652E-01
   7123.00  3.2090319E-01
   7123.33  3.3977559E-01
   7123.67  3.5763404E-01
   7124.00  3.7437951E-01
   7124.33  3.8943817E-01
   7124.67  4.0243655E-01
   7125.00  4.1298486E-01
   7125.33  4.2108735E-01
   7125.67  4.2730232E-01
   7126.00  4.3159749E-01
   7126.33  4.3434736E-01
   7126.67  4.3743146E-01
   7127.00  4.4277971E-01
   7127.33  4.5268695E-01
   7127.67  4.6725444E-01
   7128.00  4.8578660E-01
   7128.33  5.0640330E-01
   7128.67  5.2596977E-01
   7129.00  5.4196647E-01
   7129.33  5.5150159E-01
   7129.67  5.5495310E-01
   7130.00  5.5395593E-01
   7130.33  5.5175168E-01
   7130.67  5.5177585E-01
   7131.00  5.5594226E-01
   7131.33  5.6601572E-01
   7131.67  5.8137941E-01
   7132.00  6.0111307E-01
   7132.33  6.2337825E-01
   7132.67  6.4548766E-01
   7133.00  6.6596053E-01
   7133.33  6.8341614E-01
   7133.67  6.9707377E-01
   7134.00  7.0596386E-01
   7134.33  7.0921380E-01
   7134.67  7.0812697E-01
   7135.00  7.0350904E-01
   7135.33  6.9593266E-01
   7135.67  6.8670298E-01
   7136.00  6.7687258E-01
   7136.33  6.6789869E-01
   7136.67  6.6077927E-01
   7137.00  6.5595024E-01
   7137.33  6.5350967E-01
   7137.67  6.5244823E-01
   7138.00  6.5188342E-01
   7138.33  6.5070177E-01
   7138.67  6.4811487E-01
   7139.00  6.4365884E-01
   7139.33  6.3700903E-01
   7139.67  6.2891806E-01
   7140.00  6.2022371E-01
   7140.33  6.1215744E-01
   7140.67  6.0571200E-01
   7141.00  6.0159859E-01
   7141.33  6.0075741E-01
   7141.67  6.0311440E-01
   7142.00  6.0863286E-01
   7142.33  6.1719563E-01
   7142.67  6.2757816E-01
   7143.00  6.3881697E-01
   7143.33  6.4979177E-01
   7143.67  6.5966700E-01
   7144.00  6.6793786E-01
   7144.33  6.7401583E-01
   7144.67  6.7799364E-01
   7145.00  6.7986695E-01
   7145.33  6.7952942E-01
   7145.67  6.7751197E-01
   7146.00  6.7414510E-01
   7146.33  6.6974575E-01
   7146.67  6.6485256E-01
   7147.00  6.5978011E-01
   7147.33  6.5481039E-01
   7147.67  6.5007895E-01
   7148.00  6.4560441E-01
   7148.33  6.4130846E-01
   7148.67  6.3697315E-01
   7149.00  6.3236755E-01
   7149.33  6.2710130E-01
   7149.67  6.2091874E-01
   7150.00  6.1357434E-01
   7150.33  6.0472956E-01
   7150.67  5.9456650E-01
   7151.00  5.8325931E-01
   7151.33  5.7103174E-01
   7151.67  5.5835939E-01
   7152.00  5.4555705E-01
   7152.33  5.3297730E-01
   7152.67  5.2086174E-01
   7153.00  5.0937387E-01
   7153.33  4.9872482E-01
   7153.67  4.8888159E-01
   7154.00  4.7985802E-01
   7154.33  4.7172914E-01
   7154.67  4.6433316E-01
   7155.00  4.5759280E-01
   7155.33  4.5146698E-01
   7155.67  4.4576791E-01
   7156.00  4.4039337E-01
   7156.33  4.3526134E-01
   7156.67  4.3025814E-01
   7157.00  4.2533492E-01
   7157.33  4.2047708E-01
   7157.67  4.1569384E-01
   7158.00  4.1102536E-01
   7158.33  4.0655826E-01
   7158.67  4.0233867E-01
   7159.00  3.9841805E-01
   7159.33  3.9488049E-01
   7159.67  3.9169984E-01
   7160.00  3.8887064E-01
   7160.33  3.8640740E-01
   7160.67  3.8422826E-01
   7161.00  3.8229942E-01
   7161.33  3.8062639E-01
   7161.67  3.7917933E-01
   7162.00  3.7797341E-01
   7162.33  3.7707372E-01
   7162.67  3.7648272E-01
   7163.00  3.7622795E-01
   7163.33  3.7637314E-01
   7163.67  3.7687279E-01
   7164.00  3.7770654E-01
   7164.33  3.7886466E-01
   7164.67  3.8024514E-01
   7165.00  3.8177977E-01
   7165.33  3.8339315E-01
   7165.67  3.8499753E-01
   7166.00  3.8653614E-01
   7166.33  3.8794789E-01
   7166.67  3.8922363E-01
   7167.00  3.9036077E-01
   7167.33  3.9135377E-01
   7167.67  3.9223453E-01
   7168.00  3.9301528E-01
   7168.33  3.9369368E-01
   7168.67  3.9428448E-01
   7169.00  3.9478781E-01
   7169.33  3.9519338E-01
   7169.67  3.9551692E-01
   7170.00  3.9576730E-01
   7170.33  3.9595221E-01
   7170.67  3.9609709E-01
   7171.00  3.9621809E-01
   7171.33  3.9632977E-01
   7171.67  3.9643872E-01
   7172.00  3.9653635E-01
