    FDMNES
    energy     <xanes>
   7097.00  4.2710613E-03
   7097.33  4.3610378E-03
   7097.67  4.4546853E-03
   7098.00  4.5522371E-03
   7098.33  4.6545190E-03
   7098.67  4.7613391E-03
   7099.00  4.8730141E-03
   7099.33  4.9906127E-03
   7099.67  5.1139382E-03
   7100.00  5.2434325E-03
   7100.33  5.3805184E-03
   7100.67  5.5250112E-03
   7101.00  5.6775497E-03
   7101.33  5.8400929E-03
   7101.67  6.0125069E-03
   7102.00  6.1957533E-03
   7102.33  6.3926434E-03
   7102.67  6.6031818E-03
   7103.00  6.8288896E-03
   7103.33  7.0740123E-03
   7103.67  7.3388968E-03
   7104.00  7.6261021E-03
   7104.33  7.9424646E-03
   7104.67  8.2891753E-03
   7105.00  8.6708868E-03
   7105.33  9.0995558E-03
   7105.67  9.5785648E-03
   7106.00  1.0117272E-02
   7106.33  1.0739020E-02
   7106.67  1.1453476E-02
   7107.00  1.2282237E-02
   7107.33  1.3278389E-02
   7107.67  1.4472792E-02
   7108.00  1.5926197E-02
   7108.33  1.7789976E-02
   7108.67  2.0187373E-02
   7109.00  2.3350767E-02
   7109.33  2.7899895E-02
   7109.67  3.4564131E-02
   7110.00  4.4781429E-02
   7110.33  6.2694225E-02
   7110.67  9.2293090E-02
   7111.00  1.3187029E-01
   7111.33  1.6221068E-01
   7111.67  1.7989622E-01
   7112.00  1.9073606E-01
   7112.33  1.9632958E-01
   7112.67  1.9458724E-01
   7113.00  1.7975865E-01
   7113.33  1.5464796E-01
   7113.67  1.3105545E-01
   7114.00  1.1408316E-01
   7114.33  1.0339439E-01
   7114.67  9.3625207E-02
   7115.00  8.4332719E-02
   7115.33  7.7383036E-02
   7115.67  7.2380080E-02
   7116.00  6.9567249E-02
   7116.33  6.9633662E-02
   7116.67  7.2150488E-02
   7117.00  7.6608482E-02
   7117.33  8.2093273E-02
   7117.67  8.8178815E-02
   7118.00  9.5257808E-02
   7118.33  1.0348689E-01
   7118.67  1.1229989E-01
   7119.00  1.2141038E-01
   7119.33  1.3095455E-01
   7119.67  1.4103961E-01
   7120.00  1.5146180E-01
   7120.33  1.6189192E-01
   7120.67  1.7272522E-01
   7121.00  1.8499753E-01
   7121.33  2.0034249E-01
   7121.67  2.1913947E-01
   7122.00  2.4132607E-01
   7122.33  2.6631322E-01
   7122.67  2.9215499E-01
   7123.00  3.1705049E-01
   7123.33  3.3848354E-01
   7123.67  3.5602097E-01
   7124.00  3.7061877E-01
   7124.33  3.8352248E-01
   7124.67  3.9529167E-01
   7125.00  4.0562983E-01
   7125.33  4.1424151E-01
   7125.67  4.2190283E-01
   7126.00  4.2921615E-01
   7126.33  4.3619386E-01
   7126.67  4.4266722E-01
   7127.00  4.4901583E-01
   7127.33  4.5649664E-01
   7127.67  4.6616626E-01
   7128.00  4.7856735E-01
   7128.33  4.9379315E-01
   7128.67  5.1017163E-01
   7129.00  5.2559137E-01
   7129.33  5.3667279E-01
   7129.67  5.4195078E-01
   7130.00  5.4148826E-01
   7130.33  5.3705279E-01
   7130.67  5.3246784E-01
   7131.00  5.3043005E-01
   7131.33  5.3377660E-01
   7131.67  5.4320674E-01
   7132.00  5.5916361E-01
   7132.33  5.8210997E-01
   7132.67  6.1006239E-01
   7133.00  6.4142401E-01
   7133.33  6.7424695E-01
   7133.67  7.0655657E-01
   7134.00  7.3721208E-01
   7134.33  7.6391897E-01
   7134.67  7.8358203E-01
   7135.00  7.9300416E-01
   7135.33  7.8973109E-01
   7135.67  7.7749540E-01
   7136.00  7.5945517E-01
   7136.33  7.3841404E-01
   7136.67  7.1660774E-01
   7137.00  6.9496115E-01
   7137.33  6.7450558E-01
   7137.67  6.5614464E-01
   7138.00  6.4077191E-01
   7138.33  6.2956165E-01
   7138.67  6.2220230E-01
   7139.00  6.1838732E-01
   7139.33  6.1776147E-01
   7139.67  6.1908209E-01
   7140.00  6.2159249E-01
   7140.33  6.2462220E-01
   7140.67  6.2765419E-01
   7141.00  6.3052817E-01
   7141.33  6.3323166E-01
   7141.67  6.3585843E-01
   7142.00  6.3843269E-01
   7142.33  6.4088549E-01
   7142.67  6.4313149E-01
   7143.00  6.4511825E-01
   7143.33  6.4685710E-01
   7143.67  6.4852612E-01
   7144.00  6.5030225E-01
   7144.33  6.5240323E-01
   7144.67  6.5486895E-01
   7145.00  6.5763687E-01
   7145.33  6.6047732E-01
   7145.67  6.6299173E-01
   7146.00  6.6476746E-01
   7146.33  6.6518862E-01
   7146.67  6.6410564E-01
   7147.00  6.6148958E-01
   7147.33  6.5744865E-01
   7147.67  6.5265306E-01
   7148.00  6.4762267E-01
   7148.33  6.4295057E-01
   7148.67  6.3896240E-01
   7149.00  6.3577709E-01
   7149.33  6.3343028E-01
   7149.67  6.3160494E-01
   7150.00  6.3000513E-01
   7150.33  6.2817291E-01
   7150.67  6.2565422E-01
   7151.00  6.2204156E-01
   7151.33  6.1673316E-01
   7151.67  6.0963214E-01
   7152.00  6.0063575E-01
   7152.33  5.8958011E-01
   7152.67  5.7694412E-01
   7153.00  5.6305978E-01
   7153.33  5.4829945E-01
   7153.67  5.3324481E-01
   7154.00  5.1827027E-01
   7154.33  5.0378470E-01
   7154.67  4.8999211E-01
   7155.00  4.7703869E-01
   7155.33  4.6513247E-01
   7155.67  4.5417970E-01
   7156.00  4.4415746E-01
   7156.33  4.3511270E-01
   7156.67  4.2685499E-01
   7157.00  4.1931083E-01
   7157.33  4.1247984E-01
   7157.67  4.0621633E-01
   7158.00  4.0047707E-01
   7158.33  3.9528917E-01
   7158.67  3.9057251E-01
   7159.00  3.8631947E-01
   7159.33  3.8257874E-01
   7159.67  3.7928029E-01
   7160.00  3.7640908E-01
   7160.33  3.7399082E-01
   7160.67  3.7194165E-01
   7161.00  3.7022847E-01
   7161.33  3.6884776E-01
   7161.67  3.6772186E-01
   7162.00  3.6682151E-01
   7162.33  3.6614845E-01
   7162.67  3.6566378E-01
   7163.00  3.6536226E-01
   7163.33  3.6526575E-01
   7163.67  3.6535349E-01
   7164.00  3.6562738E-01
   7164.33  3.6611021E-01
   7164.67  3.6677295E-01
   7165.00  3.6760347E-01
   7165.33  3.6859451E-01
   7165.67  3.6969128E-01
   7166.00  3.7085378E-01
   7166.33  3.7202917E-01
   7166.67  3.7316037E-01
   7167.00  3.7420677E-01
   7167.33  3.7512130E-01
   7167.67  3.7590476E-01
   7168.00  3.7655974E-01
   7168.33  3.7709018E-01
   7168.67  3.7753876E-01
   7169.00  3.7793424E-01
   7169.33  3.7830666E-01
   7169.67  3.7868612E-01
   7170.00  3.7909034E-01
   7170.33  3.7953666E-01
   7170.67  3.8002375E-01
   7171.00  3.8054615E-01
   7171.33  3.8108639E-01
   7171.67  3.8160166E-01
   7172.00  3.8203607E-01
