    FDMNES
    energy     <xanes>
   7097.00  5.2924148E-03
   7097.33  5.4277391E-03
   7097.67  5.5695392E-03
   7098.00  5.7182601E-03
   7098.33  5.8754104E-03
   7098.67  6.0406894E-03
   7099.00  6.2147000E-03
   7099.33  6.3994115E-03
   7099.67  6.5945098E-03
   7100.00  6.8008306E-03
   7100.33  7.0210044E-03
   7100.67  7.2547262E-03
   7101.00  7.5031864E-03
   7101.33  7.7699923E-03
   7101.67  8.0549000E-03
   7102.00  8.3596586E-03
   7102.33  8.6893729E-03
   7102.67  9.0439727E-03
   7103.00  9.4261259E-03
   7103.33  9.8433346E-03
   7103.67  1.0295951E-02
   7104.00  1.0788234E-02
   7104.33  1.1331733E-02
   7104.67  1.1927794E-02
   7105.00  1.2583616E-02
   7105.33  1.3318057E-02
   7105.67  1.4134861E-02
   7106.00  1.5047132E-02
   7106.33  1.6088168E-02
   7106.67  1.7267917E-02
   7107.00  1.8612819E-02
   7107.33  2.0188531E-02
   7107.67  2.2023324E-02
   7108.00  2.4179436E-02
   7108.33  2.6810739E-02
   7108.67  3.0013528E-02
   7109.00  3.3978135E-02
   7109.33  3.9195710E-02
   7109.67  4.6141481E-02
   7110.00  5.5750901E-02
   7110.33  7.0642607E-02
   7110.67  9.3260111E-02
   7111.00  1.2339281E-01
   7111.33  1.5152216E-01
   7111.67  1.7396228E-01
   7112.00  2.0182701E-01
   7112.33  2.5823758E-01
   7112.67  3.5520374E-01
   7113.00  5.0537414E-01
   7113.33  7.1026270E-01
   7113.67  8.8986873E-01
   7114.00  9.7636067E-01
   7114.33  9.0650875E-01
   7114.67  7.3518196E-01
   7115.00  5.5678618E-01
   7115.33  4.2459443E-01
   7115.67  3.3199680E-01
   7116.00  2.6863388E-01
   7116.33  2.2651953E-01
   7116.67  1.9656910E-01
   7117.00  1.7513567E-01
   7117.33  1.6023301E-01
   7117.67  1.4966818E-01
   7118.00  1.4289570E-01
   7118.33  1.4013948E-01
   7118.67  1.4077356E-01
   7119.00  1.4427900E-01
   7119.33  1.4948218E-01
   7119.67  1.5426458E-01
   7120.00  1.5717820E-01
   7120.33  1.5730637E-01
   7120.67  1.5534320E-01
   7121.00  1.5192512E-01
   7121.33  1.4800247E-01
   7121.67  1.4453835E-01
   7122.00  1.4164538E-01
   7122.33  1.3891276E-01
   7122.67  1.3638642E-01
   7123.00  1.3461164E-01
   7123.33  1.3434316E-01
   7123.67  1.3585537E-01
   7124.00  1.3962121E-01
   7124.33  1.4654288E-01
   7124.67  1.5660850E-01
   7125.00  1.6995798E-01
   7125.33  1.8652531E-01
   7125.67  2.0453234E-01
   7126.00  2.2241541E-01
   7126.33  2.3882131E-01
   7126.67  2.5380353E-01
   7127.00  2.6783696E-01
   7127.33  2.8158580E-01
   7127.67  2.9574085E-01
   7128.00  3.1083093E-01
   7128.33  3.2770235E-01
   7128.67  3.4692232E-01
   7129.00  3.6907205E-01
   7129.33  3.9451008E-01
   7129.67  4.2129652E-01
   7130.00  4.4678041E-01
   7130.33  4.6763034E-01
   7130.67  4.8393908E-01
   7131.00  4.9723669E-01
   7131.33  5.0980730E-01
   7131.67  5.2348291E-01
   7132.00  5.3902826E-01
   7132.33  5.5695764E-01
   7132.67  5.7682960E-01
   7133.00  5.9823406E-01
   7133.33  6.2042265E-01
   7133.67  6.4219648E-01
   7134.00  6.6270087E-01
   7134.33  6.8107851E-01
   7134.67  6.9718248E-01
   7135.00  7.1050761E-01
   7135.33  7.1949080E-01
   7135.67  7.2315780E-01
   7136.00  7.2031935E-01
   7136.33  7.0923927E-01
   7136.67  6.9096650E-01
   7137.00  6.6643822E-01
   7137.33  6.3693035E-01
   7137.67  6.0518442E-01
   7138.00  5.7302038E-01
   7138.33  5.4240939E-01
   7138.67  5.1456182E-01
   7139.00  4.9035525E-01
   7139.33  4.7103479E-01
   7139.67  4.5645023E-01
   7140.00  4.4671799E-01
   7140.33  4.4232676E-01
   7140.67  4.4231402E-01
   7141.00  4.4613449E-01
   7141.33  4.5322670E-01
   7141.67  4.6202416E-01
   7142.00  4.7140827E-01
   7142.33  4.8023991E-01
   7142.67  4.8806835E-01
   7143.00  4.9496499E-01
   7143.33  5.0133071E-01
   7143.67  5.0774228E-01
   7144.00  5.1448895E-01
   7144.33  5.2170322E-01
   7144.67  5.2922257E-01
   7145.00  5.3692012E-01
   7145.33  5.4471795E-01
   7145.67  5.5260512E-01
   7146.00  5.6063781E-01
   7146.33  5.6893501E-01
   7146.67  5.7754341E-01
   7147.00  5.8650074E-01
   7147.33  5.9586515E-01
   7147.67  6.0558904E-01
   7148.00  6.1568166E-01
   7148.33  6.2624584E-01
   7148.67  6.3733046E-01
   7149.00  6.4905228E-01
   7149.33  6.6165041E-01
   7149.67  6.7513278E-01
   7150.00  6.8953072E-01
   7150.33  7.0492397E-01
   7150.67  7.2109607E-01
   7151.00  7.3788017E-01
   7151.33  7.5503396E-01
   7151.67  7.7214084E-01
   7152.00  7.8882158E-01
   7152.33  8.0452212E-01
   7152.67  8.1893566E-01
   7153.00  8.3171561E-01
   7153.33  8.4223187E-01
   7153.67  8.5041944E-01
   7154.00  8.5608159E-01
   7154.33  8.5876680E-01
   7154.67  8.5881027E-01
   7155.00  8.5631179E-01
   7155.33  8.5119106E-01
   7155.67  8.4402519E-01
   7156.00  8.3509288E-01
   7156.33  8.2454857E-01
   7156.67  8.1288853E-01
   7157.00  8.0035553E-01
   7157.33  7.8710688E-01
   7157.67  7.7340636E-01
   7158.00  7.5937076E-01
   7158.33  7.4506010E-01
   7158.67  7.3055637E-01
   7159.00  7.1588265E-01
   7159.33  7.0103243E-01
   7159.67  6.8603644E-01
   7160.00  6.7091298E-01
   7160.33  6.5568983E-01
   7160.67  6.4043956E-01
   7161.00  6.2523142E-01
   7161.33  6.1018045E-01
   7161.67  5.9537773E-01
   7162.00  5.8091292E-01
   7162.33  5.6692907E-01
   7162.67  5.5344129E-01
   7163.00  5.4048910E-01
   7163.33  5.2816522E-01
   7163.67  5.1640143E-01
   7164.00  5.0518536E-01
   7164.33  4.9455482E-01
   7164.67  4.8440912E-01
   7165.00  4.7471519E-01
   7165.33  4.6548796E-01
   7165.67  4.5664547E-01
   7166.00  4.4816976E-01
   7166.33  4.4009339E-01
   7166.67  4.3236986E-01
   7167.00  4.2500369E-01
   7167.33  4.1805063E-01
   7167.67  4.1147659E-01
   7168.00  4.0528908E-01
   7168.33  3.9953825E-01
   7168.67  3.9416991E-01
   7169.00  3.8917681E-01
   7169.33  3.8459520E-01
   7169.67  3.8036814E-01
   7170.00  3.7648267E-01
   7170.33  3.7296162E-01
   7170.67  3.6974802E-01
   7171.00  3.6683240E-01
   7171.33  3.6425574E-01
   7171.67  3.6201810E-01
   7172.00  3.6018769E-01
