    FDMNES
    energy     <xanes>
   7097.00  5.0023589E-03
   7097.33  5.1201205E-03
   7097.67  5.2431726E-03
   7098.00  5.3718676E-03
   7098.33  5.5074203E-03
   7098.67  5.6495718E-03
   7099.00  5.7987990E-03
   7099.33  5.9566812E-03
   7099.67  6.1229488E-03
   7100.00  6.2982636E-03
   7100.33  6.4847289E-03
   7100.67  6.6820847E-03
   7101.00  6.8912761E-03
   7101.33  7.1151863E-03
   7101.67  7.3536099E-03
   7102.00  7.6079439E-03
   7102.33  7.8822784E-03
   7102.67  8.1765629E-03
   7103.00  8.4929495E-03
   7103.33  8.8374882E-03
   7103.67  9.2105096E-03
   7104.00  9.6155017E-03
   7104.33  1.0061893E-02
   7104.67  1.0550929E-02
   7105.00  1.1088638E-02
   7105.33  1.1690733E-02
   7105.67  1.2360732E-02
   7106.00  1.3109976E-02
   7106.33  1.3967118E-02
   7106.67  1.4941809E-02
   7107.00  1.6058049E-02
   7107.33  1.7375219E-02
   7107.67  1.8922133E-02
   7108.00  2.0759295E-02
   7108.33  2.3036683E-02
   7108.67  2.5859447E-02
   7109.00  2.9430662E-02
   7109.33  3.4281314E-02
   7109.67  4.0973086E-02
   7110.00  5.0609342E-02
   7110.33  6.6314113E-02
   7110.67  9.1059175E-02
   7111.00  1.2440093E-01
   7111.33  1.5658912E-01
   7111.67  1.8747665E-01
   7112.00  2.1772304E-01
   7112.33  2.3963592E-01
   7112.67  2.6815229E-01
   7113.00  3.1930526E-01
   7113.33  4.0549697E-01
   7113.67  5.1200165E-01
   7114.00  6.0137261E-01
   7114.33  5.9926786E-01
   7114.67  5.0123657E-01
   7115.00  3.7464433E-01
   7115.33  2.8307800E-01
   7115.67  2.2620531E-01
   7116.00  1.9465159E-01
   7116.33  1.8000659E-01
   7116.67  1.7029212E-01
   7117.00  1.5980024E-01
   7117.33  1.4854139E-01
   7117.67  1.3732701E-01
   7118.00  1.2704261E-01
   7118.33  1.2055121E-01
   7118.67  1.1830399E-01
   7119.00  1.1945238E-01
   7119.33  1.2241432E-01
   7119.67  1.2561479E-01
   7120.00  1.2828993E-01
   7120.33  1.2912945E-01
   7120.67  1.2874657E-01
   7121.00  1.2895270E-01
   7121.33  1.3191087E-01
   7121.67  1.3796521E-01
   7122.00  1.4689717E-01
   7122.33  1.5763217E-01
   7122.67  1.6861522E-01
   7123.00  1.8060974E-01
   7123.33  1.9562645E-01
   7123.67  2.1340708E-01
   7124.00  2.3337356E-01
   7124.33  2.5519244E-01
   7124.67  2.7758808E-01
   7125.00  2.9884191E-01
   7125.33  3.1661970E-01
   7125.67  3.3055908E-01
   7126.00  3.4110444E-01
   7126.33  3.4970702E-01
   7126.67  3.5915378E-01
   7127.00  3.7152733E-01
   7127.33  3.8846892E-01
   7127.67  4.0876744E-01
   7128.00  4.3067756E-01
   7128.33  4.5191899E-01
   7128.67  4.7134766E-01
   7129.00  4.8896106E-01
   7129.33  5.0543550E-01
   7129.67  5.2205323E-01
   7130.00  5.3976868E-01
   7130.33  5.5963663E-01
   7130.67  5.8171354E-01
   7131.00  6.0568716E-01
   7131.33  6.3072993E-01
   7131.67  6.5563068E-01
   7132.00  6.7974223E-01
   7132.33  7.0260782E-01
   7132.67  7.2420865E-01
   7133.00  7.4424391E-01
   7133.33  7.6170063E-01
   7133.67  7.7583837E-01
   7134.00  7.8591694E-01
   7134.33  7.9131055E-01
   7134.67  7.9321720E-01
   7135.00  7.9233301E-01
   7135.33  7.8872781E-01
   7135.67  7.8253863E-01
   7136.00  7.7348433E-01
   7136.33  7.6119158E-01
   7136.67  7.4660622E-01
   7137.00  7.3063060E-01
   7137.33  7.1441713E-01
   7137.67  6.9900843E-01
   7138.00  6.8506749E-01
   7138.33  6.7343240E-01
   7138.67  6.6428147E-01
   7139.00  6.5789804E-01
   7139.33  6.5488752E-01
   7139.67  6.5495397E-01
   7140.00  6.5800490E-01
   7140.33  6.6405036E-01
   7140.67  6.7219826E-01
   7141.00  6.8179259E-01
   7141.33  6.9196793E-01
   7141.67  7.0162609E-01
   7142.00  7.0988777E-01
   7142.33  7.1560322E-01
   7142.67  7.1851661E-01
   7143.00  7.1850358E-01
   7143.33  7.1544955E-01
   7143.67  7.1017986E-01
   7144.00  7.0319506E-01
   7144.33  6.9491427E-01
   7144.67  6.8596848E-01
   7145.00  6.7669569E-01
   7145.33  6.6736073E-01
   7145.67  6.5814672E-01
   7146.00  6.4918006E-01
   7146.33  6.4063767E-01
   7146.67  6.3257677E-01
   7147.00  6.2506252E-01
   7147.33  6.1821299E-01
   7147.67  6.1196343E-01
   7148.00  6.0629303E-01
   7148.33  6.0120793E-01
   7148.67  5.9654769E-01
   7149.00  5.9220189E-01
   7149.33  5.8803532E-01
   7149.67  5.8386412E-01
   7150.00  5.7955466E-01
   7150.33  5.7494046E-01
   7150.67  5.6996172E-01
   7151.00  5.6457669E-01
   7151.33  5.5872832E-01
   7151.67  5.5249975E-01
   7152.00  5.4594154E-01
   7152.33  5.3910013E-01
   7152.67  5.3210036E-01
   7153.00  5.2503100E-01
   7153.33  5.1800387E-01
   7153.67  5.1112074E-01
   7154.00  5.0446976E-01
   7154.33  4.9818711E-01
   7154.67  4.9231432E-01
   7155.00  4.8690725E-01
   7155.33  4.8207133E-01
   7155.67  4.7775626E-01
   7156.00  4.7394860E-01
   7156.33  4.7066131E-01
   7156.67  4.6776516E-01
   7157.00  4.6518512E-01
   7157.33  4.6285600E-01
   7157.67  4.6066340E-01
   7158.00  4.5854773E-01
   7158.33  4.5646489E-01
   7158.67  4.5438747E-01
   7159.00  4.5231215E-01
   7159.33  4.5025107E-01
   7159.67  4.4822208E-01
   7160.00  4.4624453E-01
   7160.33  4.4435092E-01
   7160.67  4.4255133E-01
   7161.00  4.4085587E-01
   7161.33  4.3928492E-01
   7161.67  4.3782410E-01
   7162.00  4.3646627E-01
   7162.33  4.3520678E-01
   7162.67  4.3401399E-01
   7163.00  4.3286781E-01
   7163.33  4.3174842E-01
   7163.67  4.3063002E-01
   7164.00  4.2949324E-01
   7164.33  4.2831118E-01
   7164.67  4.2706934E-01
   7165.00  4.2575459E-01
   7165.33  4.2434625E-01
   7165.67  4.2285050E-01
   7166.00  4.2126991E-01
   7166.33  4.1960633E-01
   7166.67  4.1788801E-01
   7167.00  4.1613675E-01
   7167.33  4.1438375E-01
   7167.67  4.1266608E-01
   7168.00  4.1101860E-01
   7168.33  4.0950212E-01
   7168.67  4.0814763E-01
   7169.00  4.0698356E-01
   7169.33  4.0606486E-01
   7169.67  4.0538639E-01
   7170.00  4.0495941E-01
   7170.33  4.0481814E-01
   7170.67  4.0492021E-01
   7171.00  4.0524278E-01
   7171.33  4.0575585E-01
   7171.67  4.0634338E-01
   7172.00  4.0688002E-01
