    FDMNES
    energy     <xanes>
   7097.00  4.9407934E-03
   7097.33  5.0568671E-03
   7097.67  5.1782005E-03
   7098.00  5.3051508E-03
   7098.33  5.4389373E-03
   7098.67  5.5793129E-03
   7099.00  5.7267647E-03
   7099.33  5.8828886E-03
   7099.67  6.0474325E-03
   7100.00  6.2210788E-03
   7100.33  6.4059718E-03
   7100.67  6.6018791E-03
   7101.00  6.8097872E-03
   7101.33  7.0326676E-03
   7101.67  7.2703638E-03
   7102.00  7.5243554E-03
   7102.33  7.7989175E-03
   7102.67  8.0940928E-03
   7103.00  8.4122033E-03
   7103.33  8.7596877E-03
   7103.67  9.1370705E-03
   7104.00  9.5482036E-03
   7104.33  1.0003358E-02
   7104.67  1.0504221E-02
   7105.00  1.1057650E-02
   7105.33  1.1681291E-02
   7105.67  1.2379779E-02
   7106.00  1.3166508E-02
   7106.33  1.4074973E-02
   7106.67  1.5118027E-02
   7107.00  1.6325425E-02
   7107.33  1.7770390E-02
   7107.67  1.9492596E-02
   7108.00  2.1571936E-02
   7108.33  2.4206939E-02
   7108.67  2.7550320E-02
   7109.00  3.1892537E-02
   7109.33  3.8003016E-02
   7109.67  4.6755524E-02
   7110.00  5.9871036E-02
   7110.33  8.2249507E-02
   7110.67  1.1824681E-01
   7111.00  1.6498997E-01
   7111.33  2.0230946E-01
   7111.67  2.2979214E-01
   7112.00  2.6079434E-01
   7112.33  2.9648531E-01
   7112.67  3.3368802E-01
   7113.00  3.6817651E-01
   7113.33  3.7612440E-01
   7113.67  3.5861706E-01
   7114.00  3.2146879E-01
   7114.33  2.8478061E-01
   7114.67  2.6763298E-01
   7115.00  2.7173549E-01
   7115.33  2.8115576E-01
   7115.67  2.7211586E-01
   7116.00  2.4437950E-01
   7116.33  2.1382208E-01
   7116.67  1.8850399E-01
   7117.00  1.6893660E-01
   7117.33  1.5585626E-01
   7117.67  1.4789229E-01
   7118.00  1.4351604E-01
   7118.33  1.4084270E-01
   7118.67  1.3885911E-01
   7119.00  1.3789865E-01
   7119.33  1.3812714E-01
   7119.67  1.3912224E-01
   7120.00  1.4102106E-01
   7120.33  1.4397388E-01
   7120.67  1.4725949E-01
   7121.00  1.4986348E-01
   7121.33  1.5104750E-01
   7121.67  1.5231348E-01
   7122.00  1.5527880E-01
   7122.33  1.6090814E-01
   7122.67  1.6844329E-01
   7123.00  1.7762253E-01
   7123.33  1.8909478E-01
   7123.67  2.0302827E-01
   7124.00  2.1915254E-01
   7124.33  2.3624162E-01
   7124.67  2.5217038E-01
   7125.00  2.6535690E-01
   7125.33  2.7444356E-01
   7125.67  2.8043588E-01
   7126.00  2.8490553E-01
   7126.33  2.9010289E-01
   7126.67  2.9759212E-01
   7127.00  3.0845848E-01
   7127.33  3.2464136E-01
   7127.67  3.4705713E-01
   7128.00  3.7696991E-01
   7128.33  4.1631603E-01
   7128.67  4.6317848E-01
   7129.00  5.1480076E-01
   7129.33  5.6649616E-01
   7129.67  6.1450840E-01
   7130.00  6.5743237E-01
   7130.33  6.9338137E-01
   7130.67  7.2177160E-01
   7131.00  7.4252301E-01
   7131.33  7.5752990E-01
   7131.67  7.7179607E-01
   7132.00  7.8860169E-01
   7132.33  8.0979338E-01
   7132.67  8.3324725E-01
   7133.00  8.5610629E-01
   7133.33  8.7478930E-01
   7133.67  8.8814034E-01
   7134.00  8.9567207E-01
   7134.33  8.9576954E-01
   7134.67  8.8788963E-01
   7135.00  8.7104887E-01
   7135.33  8.4436826E-01
   7135.67  8.1133747E-01
   7136.00  7.7526246E-01
   7136.33  7.3992669E-01
   7136.67  7.0767771E-01
   7137.00  6.7945945E-01
   7137.33  6.5591185E-01
   7137.67  6.3600899E-01
   7138.00  6.1910135E-01
   7138.33  6.0473289E-01
   7138.67  5.9209378E-01
   7139.00  5.8095726E-01
   7139.33  5.7144598E-01
   7139.67  5.6341957E-01
   7140.00  5.5692637E-01
   7140.33  5.5222483E-01
   7140.67  5.4916134E-01
   7141.00  5.4773836E-01
   7141.33  5.4807639E-01
   7141.67  5.4979683E-01
   7142.00  5.5265854E-01
   7142.33  5.5641740E-01
   7142.67  5.6062557E-01
   7143.00  5.6503413E-01
   7143.33  5.6945510E-01
   7143.67  5.7381111E-01
   7144.00  5.7810509E-01
   7144.33  5.8237228E-01
   7144.67  5.8664685E-01
   7145.00  5.9092541E-01
   7145.33  5.9515090E-01
   7145.67  5.9922823E-01
   7146.00  6.0303904E-01
   7146.33  6.0637610E-01
   7146.67  6.0915263E-01
   7147.00  6.1127565E-01
   7147.33  6.1257605E-01
   7147.67  6.1310651E-01
   7148.00  6.1286969E-01
   7148.33  6.1182385E-01
   7148.67  6.1014903E-01
   7149.00  6.0794182E-01
   7149.33  6.0527304E-01
   7149.67  6.0231297E-01
   7150.00  5.9915047E-01
   7150.33  5.9584850E-01
   7150.67  5.9247033E-01
   7151.00  5.8903402E-01
   7151.33  5.8553283E-01
   7151.67  5.8196301E-01
   7152.00  5.7831509E-01
   7152.33  5.7457713E-01
   7152.67  5.7077331E-01
   7153.00  5.6692965E-01
   7153.33  5.6309049E-01
   7153.67  5.5930895E-01
   7154.00  5.5563412E-01
   7154.33  5.5214189E-01
   7154.67  5.4885960E-01
   7155.00  5.4581695E-01
   7155.33  5.4306378E-01
   7155.67  5.4056639E-01
   7156.00  5.3830896E-01
   7156.33  5.3628374E-01
   7156.67  5.3441841E-01
   7157.00  5.3266606E-01
   7157.33  5.3097508E-01
   7157.67  5.2927965E-01
   7158.00  5.2753046E-01
   7158.33  5.2565858E-01
   7158.67  5.2362442E-01
   7159.00  5.2138377E-01
   7159.33  5.1885494E-01
   7159.67  5.1602452E-01
   7160.00  5.1285985E-01
   7160.33  5.0928967E-01
   7160.67  5.0535140E-01
   7161.00  5.0105773E-01
   7161.33  4.9640887E-01
   7161.67  4.9150873E-01
   7162.00  4.8642613E-01
   7162.33  4.8123546E-01
   7162.67  4.7603855E-01
   7163.00  4.7091424E-01
   7163.33  4.6596910E-01
   7163.67  4.6125772E-01
   7164.00  4.5683160E-01
   7164.33  4.5277446E-01
   7164.67  4.4906969E-01
   7165.00  4.4572450E-01
   7165.33  4.4277511E-01
   7165.67  4.4015371E-01
   7166.00  4.3782829E-01
   7166.33  4.3578035E-01
   7166.67  4.3391995E-01
   7167.00  4.3219123E-01
   7167.33  4.3053571E-01
   7167.67  4.2888261E-01
   7168.00  4.2718642E-01
   7168.33  4.2540077E-01
   7168.67  4.2352041E-01
   7169.00  4.2154725E-01
   7169.33  4.1948876E-01
   7169.67  4.1738712E-01
   7170.00  4.1528149E-01
   7170.33  4.1323161E-01
   7170.67  4.1128786E-01
   7171.00  4.0949821E-01
   7171.33  4.0794130E-01
   7171.67  4.0663916E-01
   7172.00  4.0562342E-01
