    FDMNES
    energy     <xanes>
   7097.00  4.9724750E-03
   7097.33  5.0823751E-03
   7097.67  5.1969644E-03
   7098.00  5.3165447E-03
   7098.33  5.4421755E-03
   7098.67  5.5736142E-03
   7099.00  5.7112676E-03
   7099.33  5.8565042E-03
   7099.67  6.0090704E-03
   7100.00  6.1695288E-03
   7100.33  6.3396919E-03
   7100.67  6.5193126E-03
   7101.00  6.7091931E-03
   7101.33  6.9118070E-03
   7101.67  7.1269536E-03
   7102.00  7.3558195E-03
   7102.33  7.6019060E-03
   7102.67  7.8651490E-03
   7103.00  8.1473842E-03
   7103.33  8.4537964E-03
   7103.67  8.7846659E-03
   7104.00  9.1429959E-03
   7104.33  9.5369169E-03
   7104.67  9.9675588E-03
   7105.00  1.0440199E-02
   7105.33  1.0968583E-02
   7105.67  1.1556021E-02
   7106.00  1.2212719E-02
   7106.33  1.2964416E-02
   7106.67  1.3820576E-02
   7107.00  1.4803766E-02
   7107.33  1.5969822E-02
   7107.67  1.7348621E-02
   7108.00  1.9001020E-02
   7108.33  2.1078970E-02
   7108.67  2.3700382E-02
   7109.00  2.7090740E-02
   7109.33  3.1851580E-02
   7109.67  3.8680004E-02
   7110.00  4.8958057E-02
   7110.33  6.6669071E-02
   7110.67  9.5517060E-02
   7111.00  1.3269350E-01
   7111.33  1.5445156E-01
   7111.67  1.6429708E-01
   7112.00  1.7799881E-01
   7112.33  1.8987505E-01
   7112.67  1.9526675E-01
   7113.00  2.0717543E-01
   7113.33  2.4376956E-01
   7113.67  2.9404681E-01
   7114.00  3.2818261E-01
   7114.33  3.2423696E-01
   7114.67  3.0960644E-01
   7115.00  2.9740410E-01
   7115.33  2.8302619E-01
   7115.67  2.6378447E-01
   7116.00  2.4359285E-01
   7116.33  2.2773059E-01
   7116.67  2.1840568E-01
   7117.00  2.1723678E-01
   7117.33  2.2604241E-01
   7117.67  2.4010690E-01
   7118.00  2.5061341E-01
   7118.33  2.4531148E-01
   7118.67  2.2796968E-01
   7119.00  2.0746301E-01
   7119.33  1.9077372E-01
   7119.67  1.7838326E-01
   7120.00  1.6927342E-01
   7120.33  1.6254137E-01
   7120.67  1.5728080E-01
   7121.00  1.5330392E-01
   7121.33  1.5088209E-01
   7121.67  1.5020622E-01
   7122.00  1.5169267E-01
   7122.33  1.5610197E-01
   7122.67  1.6339604E-01
   7123.00  1.7374582E-01
   7123.33  1.8776050E-01
   7123.67  2.0518187E-01
   7124.00  2.2600122E-01
   7124.33  2.5036568E-01
   7124.67  2.7713767E-01
   7125.00  3.0487490E-01
   7125.33  3.3038927E-01
   7125.67  3.5064194E-01
   7126.00  3.6459716E-01
   7126.33  3.7401053E-01
   7126.67  3.8337784E-01
   7127.00  3.9526553E-01
   7127.33  4.1115947E-01
   7127.67  4.3020205E-01
   7128.00  4.5158478E-01
   7128.33  4.7427778E-01
   7128.67  4.9741882E-01
   7129.00  5.2166066E-01
   7129.33  5.4904909E-01
   7129.67  5.8000627E-01
   7130.00  6.1373287E-01
   7130.33  6.4826717E-01
   7130.67  6.8122827E-01
   7131.00  7.1114577E-01
   7131.33  7.3680289E-01
   7131.67  7.5871110E-01
   7132.00  7.7714326E-01
   7132.33  7.9221714E-01
   7132.67  8.0510433E-01
   7133.00  8.1660202E-01
   7133.33  8.2711939E-01
   7133.67  8.3623269E-01
   7134.00  8.4255536E-01
   7134.33  8.4399659E-01
   7134.67  8.4150624E-01
   7135.00  8.3716836E-01
   7135.33  8.3354835E-01
   7135.67  8.3133417E-01
   7136.00  8.2949018E-01
   7136.33  8.2522654E-01
   7136.67  8.1620473E-01
   7137.00  8.0125232E-01
   7137.33  7.8018389E-01
   7137.67  7.5565640E-01
   7138.00  7.2974448E-01
   7138.33  7.0460654E-01
   7138.67  6.8152871E-01
   7139.00  6.6114727E-01
   7139.33  6.4411516E-01
   7139.67  6.3001934E-01
   7140.00  6.1866658E-01
   7140.33  6.1001435E-01
   7140.67  6.0333589E-01
   7141.00  5.9822442E-01
   7141.33  5.9432476E-01
   7141.67  5.9103425E-01
   7142.00  5.8799869E-01
   7142.33  5.8487669E-01
   7142.67  5.8144767E-01
   7143.00  5.7759731E-01
   7143.33  5.7321480E-01
   7143.67  5.6834939E-01
   7144.00  5.6300512E-01
   7144.33  5.5716439E-01
   7144.67  5.5095750E-01
   7145.00  5.4447008E-01
   7145.33  5.3779460E-01
   7145.67  5.3107089E-01
   7146.00  5.2439916E-01
   7146.33  5.1790742E-01
   7146.67  5.1166974E-01
   7147.00  5.0575357E-01
   7147.33  5.0026900E-01
   7147.67  4.9521374E-01
   7148.00  4.9061562E-01
   7148.33  4.8655641E-01
   7148.67  4.8299035E-01
   7149.00  4.7992583E-01
   7149.33  4.7743312E-01
   7149.67  4.7545269E-01
   7150.00  4.7398508E-01
   7150.33  4.7308825E-01
   7150.67  4.7267952E-01
   7151.00  4.7272550E-01
   7151.33  4.7322112E-01
   7151.67  4.7404402E-01
   7152.00  4.7511880E-01
   7152.33  4.7636868E-01
   7152.67  4.7767959E-01
   7153.00  4.7898008E-01
   7153.33  4.8019659E-01
   7153.67  4.8129826E-01
   7154.00  4.8226919E-01
   7154.33  4.8309270E-01
   7154.67  4.8379921E-01
   7155.00  4.8440764E-01
   7155.33  4.8493409E-01
   7155.67  4.8541219E-01
   7156.00  4.8586011E-01
   7156.33  4.8629304E-01
   7156.67  4.8672474E-01
   7157.00  4.8716194E-01
   7157.33  4.8760976E-01
   7157.67  4.8806700E-01
   7158.00  4.8853133E-01
   7158.33  4.8899955E-01
   7158.67  4.8946484E-01
   7159.00  4.8991989E-01
   7159.33  4.9035409E-01
   7159.67  4.9076233E-01
   7160.00  4.9113933E-01
   7160.33  4.9147634E-01
   7160.67  4.9177592E-01
   7161.00  4.9203834E-01
   7161.33  4.9226072E-01
   7161.67  4.9245055E-01
   7162.00  4.9261206E-01
   7162.33  4.9274894E-01
   7162.67  4.9287286E-01
   7163.00  4.9299508E-01
   7163.33  4.9313136E-01
   7163.67  4.9329215E-01
   7164.00  4.9348750E-01
   7164.33  4.9373126E-01
   7164.67  4.9401925E-01
   7165.00  4.9435178E-01
   7165.33  4.9473577E-01
   7165.67  4.9516334E-01
   7166.00  4.9562941E-01
   7166.33  4.9612891E-01
   7166.67  4.9664739E-01
   7167.00  4.9717457E-01
   7167.33  4.9769743E-01
   7167.67  4.9820471E-01
   7168.00  4.9868609E-01
   7168.33  4.9912228E-01
   7168.67  4.9950784E-01
   7169.00  4.9983772E-01
   7169.33  5.0010113E-01
   7169.67  5.0030513E-01
   7170.00  5.0044927E-01
   7170.33  5.0052533E-01
   7170.67  5.0054221E-01
   7171.00  5.0050328E-01
   7171.33  5.0041207E-01
   7171.67  5.0029493E-01
   7172.00  5.0018164E-01
