    FDMNES
    energy     <xanes>
   7097.00  5.1604203E-03
   7097.33  5.2860442E-03
   7097.67  5.4175042E-03
   7098.00  5.5552000E-03
   7098.33  5.7004899E-03
   7098.67  5.8531033E-03
   7099.00  6.0135843E-03
   7099.33  6.1837110E-03
   7099.67  6.3632051E-03
   7100.00  6.5528268E-03
   7100.33  6.7549620E-03
   7100.67  6.9693500E-03
   7101.00  7.1970846E-03
   7101.33  7.4414619E-03
   7101.67  7.7022956E-03
   7102.00  7.9812141E-03
   7102.33  8.2829335E-03
   7102.67  8.6074652E-03
   7103.00  8.9573373E-03
   7103.33  9.3395891E-03
   7103.67  9.7547076E-03
   7104.00  1.0206823E-02
   7104.33  1.0707008E-02
   7104.67  1.1256878E-02
   7105.00  1.1863628E-02
   7105.33  1.2545880E-02
   7105.67  1.3308035E-02
   7106.00  1.4163707E-02
   7106.33  1.5147122E-02
   7106.67  1.6270121E-02
   7107.00  1.7561575E-02
   7107.33  1.9092635E-02
   7107.67  2.0897957E-02
   7108.00  2.3049710E-02
   7108.33  2.5725795E-02
   7108.67  2.9048136E-02
   7109.00  3.3250535E-02
   7109.33  3.8935219E-02
   7109.67  4.6705424E-02
   7110.00  5.7730635E-02
   7110.33  7.5336603E-02
   7110.67  1.0357365E-01
   7111.00  1.4704712E-01
   7111.33  2.0415626E-01
   7111.67  2.5581248E-01
   7112.00  2.8917168E-01
   7112.33  3.1555152E-01
   7112.67  3.6351851E-01
   7113.00  4.3775041E-01
   7113.33  5.1553869E-01
   7113.67  5.6666860E-01
   7114.00  5.7729767E-01
   7114.33  5.2748416E-01
   7114.67  4.3858948E-01
   7115.00  3.4636547E-01
   7115.33  2.7816396E-01
   7115.67  2.3227893E-01
   7116.00  2.0339180E-01
   7116.33  1.8649776E-01
   7116.67  1.7456063E-01
   7117.00  1.6433586E-01
   7117.33  1.5555537E-01
   7117.67  1.4892539E-01
   7118.00  1.4432749E-01
   7118.33  1.4099437E-01
   7118.67  1.3758895E-01
   7119.00  1.3318284E-01
   7119.33  1.2803282E-01
   7119.67  1.2375994E-01
   7120.00  1.2111236E-01
   7120.33  1.2031264E-01
   7120.67  1.2103940E-01
   7121.00  1.2341545E-01
   7121.33  1.2770499E-01
   7121.67  1.3339314E-01
   7122.00  1.4027739E-01
   7122.33  1.4856889E-01
   7122.67  1.5818613E-01
   7123.00  1.6900681E-01
   7123.33  1.8106831E-01
   7123.67  1.9438789E-01
   7124.00  2.0900094E-01
   7124.33  2.2458565E-01
   7124.67  2.4013712E-01
   7125.00  2.5472346E-01
   7125.33  2.6712939E-01
   7125.67  2.7708863E-01
   7126.00  2.8484048E-01
   7126.33  2.9142818E-01
   7126.67  2.9861179E-01
   7127.00  3.0759146E-01
   7127.33  3.1961490E-01
   7127.67  3.3488866E-01
   7128.00  3.5370626E-01
   7128.33  3.7675166E-01
   7128.67  4.0354973E-01
   7129.00  4.3372456E-01
   7129.33  4.6673726E-01
   7129.67  5.0149275E-01
   7130.00  5.3789881E-01
   7130.33  5.7645781E-01
   7130.67  6.1653782E-01
   7131.00  6.5692610E-01
   7131.33  6.9595637E-01
   7131.67  7.3387542E-01
   7132.00  7.7264388E-01
   7132.33  8.1559558E-01
   7132.67  8.6295525E-01
   7133.00  9.1229004E-01
   7133.33  9.5747460E-01
   7133.67  9.9244642E-01
   7134.00  1.0125066E+00
   7134.33  1.0119588E+00
   7134.67  9.9277028E-01
   7135.00  9.5758229E-01
   7135.33  9.1061964E-01
   7135.67  8.5922086E-01
   7136.00  8.0759788E-01
   7136.33  7.5938001E-01
   7136.67  7.1587824E-01
   7137.00  6.7766728E-01
   7137.33  6.4547238E-01
   7137.67  6.1832225E-01
   7138.00  5.9586736E-01
   7138.33  5.7827908E-01
   7138.67  5.6472436E-01
   7139.00  5.5499516E-01
   7139.33  5.4928674E-01
   7139.67  5.4682784E-01
   7140.00  5.4724945E-01
   7140.33  5.5030874E-01
   7140.67  5.5510385E-01
   7141.00  5.6110248E-01
   7141.33  5.6780776E-01
   7141.67  5.7465794E-01
   7142.00  5.8133285E-01
   7142.33  5.8752384E-01
   7142.67  5.9315189E-01
   7143.00  5.9818960E-01
   7143.33  6.0261789E-01
   7143.67  6.0660181E-01
   7144.00  6.1021974E-01
   7144.33  6.1349799E-01
   7144.67  6.1651755E-01
   7145.00  6.1929402E-01
   7145.33  6.2177826E-01
   7145.67  6.2394697E-01
   7146.00  6.2572662E-01
   7146.33  6.2695463E-01
   7146.67  6.2759382E-01
   7147.00  6.2757825E-01
   7147.33  6.2678279E-01
   7147.67  6.2530748E-01
   7148.00  6.2320670E-01
   7148.33  6.2052129E-01
   7148.67  6.1745196E-01
   7149.00  6.1412465E-01
   7149.33  6.1066642E-01
   7149.67  6.0720706E-01
   7150.00  6.0381289E-01
   7150.33  6.0053586E-01
   7150.67  5.9736480E-01
   7151.00  5.9427759E-01
   7151.33  5.9123436E-01
   7151.67  5.8817482E-01
   7152.00  5.8505170E-01
   7152.33  5.8180567E-01
   7152.67  5.7842157E-01
   7153.00  5.7489054E-01
   7153.33  5.7120345E-01
   7153.67  5.6740457E-01
   7154.00  5.6352886E-01
   7154.33  5.5962195E-01
   7154.67  5.5574021E-01
   7155.00  5.5192780E-01
   7155.33  5.4824335E-01
   7155.67  5.4470595E-01
   7156.00  5.4133403E-01
   7156.33  5.3815788E-01
   7156.67  5.3515061E-01
   7157.00  5.3229828E-01
   7157.33  5.2959303E-01
   7157.67  5.2699008E-01
   7158.00  5.2446505E-01
   7158.33  5.2199927E-01
   7158.67  5.1956710E-01
   7159.00  5.1715891E-01
   7159.33  5.1477356E-01
   7159.67  5.1241198E-01
   7160.00  5.1008220E-01
   7160.33  5.0780087E-01
   7160.67  5.0557184E-01
   7161.00  5.0340098E-01
   7161.33  5.0129865E-01
   7161.67  4.9925346E-01
   7162.00  4.9725450E-01
   7162.33  4.9527692E-01
   7162.67  4.9327902E-01
   7163.00  4.9121917E-01
   7163.33  4.8902401E-01
   7163.67  4.8665027E-01
   7164.00  4.8405521E-01
   7164.33  4.8116445E-01
   7164.67  4.7798210E-01
   7165.00  4.7449892E-01
   7165.33  4.7068745E-01
   7165.67  4.6661363E-01
   7166.00  4.6231645E-01
   7166.33  4.5782948E-01
   7166.67  4.5323152E-01
   7167.00  4.4857078E-01
   7167.33  4.4389681E-01
   7167.67  4.3925429E-01
   7168.00  4.3467432E-01
   7168.33  4.3020294E-01
   7168.67  4.2586285E-01
   7169.00  4.2168148E-01
   7169.33  4.1770669E-01
   7169.67  4.1393782E-01
   7170.00  4.1039540E-01
   7170.33  4.0713641E-01
   7170.67  4.0415540E-01
   7171.00  4.0147560E-01
   7171.33  3.9916917E-01
   7171.67  3.9723454E-01
   7172.00  3.9571147E-01
