    FDMNES
    energy     <xanes>
   7097.00  5.0376450E-03
   7097.33  5.1560340E-03
   7097.67  5.2798278E-03
   7098.00  5.4093942E-03
   7098.33  5.5459873E-03
   7098.67  5.6893534E-03
   7099.00  5.8399933E-03
   7099.33  5.9995470E-03
   7099.67  6.1677544E-03
   7100.00  6.3453150E-03
   7100.33  6.5344287E-03
   7100.67  6.7348525E-03
   7101.00  6.9475936E-03
   7101.33  7.1756921E-03
   7101.67  7.4189752E-03
   7102.00  7.6789454E-03
   7102.33  7.9599565E-03
   7102.67  8.2620231E-03
   7103.00  8.5874846E-03
   7103.33  8.9428524E-03
   7103.67  9.3285935E-03
   7104.00  9.7485455E-03
   7104.33  1.0212988E-02
   7104.67  1.0723466E-02
   7105.00  1.1286704E-02
   7105.33  1.1920088E-02
   7105.67  1.2627845E-02
   7106.00  1.3422809E-02
   7106.33  1.4337203E-02
   7106.67  1.5382486E-02
   7107.00  1.6586197E-02
   7107.33  1.8016139E-02
   7107.67  1.9706208E-02
   7108.00  2.1726287E-02
   7108.33  2.4248700E-02
   7108.67  2.7394165E-02
   7109.00  3.1393006E-02
   7109.33  3.6839345E-02
   7109.67  4.4336347E-02
   7110.00  5.5050656E-02
   7110.33  7.2294802E-02
   7110.67  1.0007056E-01
   7111.00  1.4300427E-01
   7111.33  2.0282762E-01
   7111.67  2.6482578E-01
   7112.00  3.0793742E-01
   7112.33  3.1890231E-01
   7112.67  3.2056859E-01
   7113.00  3.2950060E-01
   7113.33  3.5084473E-01
   7113.67  3.7897038E-01
   7114.00  4.0839507E-01
   7114.33  4.2628310E-01
   7114.67  4.1663161E-01
   7115.00  3.7872046E-01
   7115.33  3.3234894E-01
   7115.67  2.9456619E-01
   7116.00  2.6767526E-01
   7116.33  2.4777515E-01
   7116.67  2.2642805E-01
   7117.00  1.9955878E-01
   7117.33  1.7026603E-01
   7117.67  1.4520326E-01
   7118.00  1.2645907E-01
   7118.33  1.1388783E-01
   7118.67  1.0522773E-01
   7119.00  9.9455952E-02
   7119.33  9.6049657E-02
   7119.67  9.4142719E-02
   7120.00  9.3183708E-02
   7120.33  9.2617713E-02
   7120.67  9.2376167E-02
   7121.00  9.3014395E-02
   7121.33  9.5397221E-02
   7121.67  9.9588327E-02
   7122.00  1.0552568E-01
   7122.33  1.1337359E-01
   7122.67  1.2332024E-01
   7123.00  1.3599650E-01
   7123.33  1.5218308E-01
   7123.67  1.7093854E-01
   7124.00  1.9117896E-01
   7124.33  2.1223269E-01
   7124.67  2.3459102E-01
   7125.00  2.5887676E-01
   7125.33  2.8465666E-01
   7125.67  3.1031784E-01
   7126.00  3.3569717E-01
   7126.33  3.6261020E-01
   7126.67  3.9233153E-01
   7127.00  4.2419344E-01
   7127.33  4.5466082E-01
   7127.67  4.7992045E-01
   7128.00  4.9821969E-01
   7128.33  5.0834006E-01
   7128.67  5.1179463E-01
   7129.00  5.1023088E-01
   7129.33  5.0656033E-01
   7129.67  5.0398904E-01
   7130.00  5.0391032E-01
   7130.33  5.0683005E-01
   7130.67  5.1165878E-01
   7131.00  5.1757650E-01
   7131.33  5.2406329E-01
   7131.67  5.3122857E-01
   7132.00  5.3984948E-01
   7132.33  5.5144158E-01
   7132.67  5.6646245E-01
   7133.00  5.8501137E-01
   7133.33  6.0716206E-01
   7133.67  6.3213077E-01
   7134.00  6.5976461E-01
   7134.33  6.9047629E-01
   7134.67  7.2418492E-01
   7135.00  7.6122493E-01
   7135.33  8.0237711E-01
   7135.67  8.4654818E-01
   7136.00  8.9132142E-01
   7136.33  9.3071407E-01
   7136.67  9.5908045E-01
   7137.00  9.7278531E-01
   7137.33  9.6939967E-01
   7137.67  9.5372845E-01
   7138.00  9.2957366E-01
   7138.33  9.0071059E-01
   7138.67  8.7092211E-01
   7139.00  8.4202212E-01
   7139.33  8.1544270E-01
   7139.67  7.9139201E-01
   7140.00  7.6990433E-01
   7140.33  7.5103270E-01
   7140.67  7.3403292E-01
   7141.00  7.1838288E-01
   7141.33  7.0345077E-01
   7141.67  6.8843016E-01
   7142.00  6.7279690E-01
   7142.33  6.5611336E-01
   7142.67  6.3858611E-01
   7143.00  6.2056567E-01
   7143.33  6.0259108E-01
   7143.67  5.8512684E-01
   7144.00  5.6843380E-01
   7144.33  5.5275180E-01
   7144.67  5.3795818E-01
   7145.00  5.2398672E-01
   7145.33  5.1083525E-01
   7145.67  4.9833843E-01
   7146.00  4.8646431E-01
   7146.33  4.7529654E-01
   7146.67  4.6480547E-01
   7147.00  4.5506167E-01
   7147.33  4.4627425E-01
   7147.67  4.3844840E-01
   7148.00  4.3167615E-01
   7148.33  4.2619205E-01
   7148.67  4.2191883E-01
   7149.00  4.1888625E-01
   7149.33  4.1724549E-01
   7149.67  4.1680839E-01
   7150.00  4.1753461E-01
   7150.33  4.1949980E-01
   7150.67  4.2248254E-01
   7151.00  4.2639860E-01
   7151.33  4.3124263E-01
   7151.67  4.3678873E-01
   7152.00  4.4292175E-01
   7152.33  4.4955773E-01
   7152.67  4.5649918E-01
   7153.00  4.6362711E-01
   7153.33  4.7082262E-01
   7153.67  4.7796685E-01
   7154.00  4.8497282E-01
   7154.33  4.9172164E-01
   7154.67  4.9817061E-01
   7155.00  5.0427624E-01
   7155.33  5.0995524E-01
   7155.67  5.1522972E-01
   7156.00  5.2008439E-01
   7156.33  5.2445372E-01
   7156.67  5.2838496E-01
   7157.00  5.3187545E-01
   7157.33  5.3486944E-01
   7157.67  5.3742169E-01
   7158.00  5.3953309E-01
   7158.33  5.4115410E-01
   7158.67  5.4234684E-01
   7159.00  5.4311788E-01
   7159.33  5.4341998E-01
   7159.67  5.4330448E-01
   7160.00  5.4276470E-01
   7160.33  5.4173064E-01
   7160.67  5.4023679E-01
   7161.00  5.3826530E-01
   7161.33  5.3573967E-01
   7161.67  5.3272247E-01
   7162.00  5.2923227E-01
   7162.33  5.2525248E-01
   7162.67  5.2089357E-01
   7163.00  5.1621625E-01
   7163.33  5.1127166E-01
   7163.67  5.0617900E-01
   7164.00  5.0101588E-01
   7164.33  4.9586874E-01
   7164.67  4.9080972E-01
   7165.00  4.8589272E-01
   7165.33  4.8119392E-01
   7165.67  4.7673185E-01
   7166.00  4.7254178E-01
   7166.33  4.6870177E-01
   7166.67  4.6520654E-01
   7167.00  4.6208386E-01
   7167.33  4.5941708E-01
   7167.67  4.5718848E-01
   7168.00  4.5542472E-01
   7168.33  4.5421147E-01
   7168.67  4.5350041E-01
   7169.00  4.5329051E-01
   7169.33  4.5362453E-01
   7169.67  4.5440571E-01
   7170.00  4.5558804E-01
   7170.33  4.5714319E-01
   7170.67  4.5894406E-01
   7171.00  4.6090334E-01
   7171.33  4.6290017E-01
   7171.67  4.6475973E-01
   7172.00  4.6629193E-01
