    FDMNES
    energy     <xanes>
   7097.00  4.1093904E-03
   7097.33  4.1859648E-03
   7097.67  4.2653595E-03
   7098.00  4.3477394E-03
   7098.33  4.4337145E-03
   7098.67  4.5231179E-03
   7099.00  4.6161689E-03
   7099.33  4.7136413E-03
   7099.67  4.8153589E-03
   7100.00  4.9216217E-03
   7100.33  5.0334368E-03
   7100.67  5.1506276E-03
   7101.00  5.2736177E-03
   7101.33  5.4037601E-03
   7101.67  5.5408982E-03
   7102.00  5.6856549E-03
   7102.33  5.8399187E-03
   7102.67  6.0036012E-03
   7103.00  6.1776625E-03
   7103.33  6.3648697E-03
   7103.67  6.5653135E-03
   7104.00  6.7805649E-03
   7104.33  7.0149348E-03
   7104.67  7.2689650E-03
   7105.00  7.5454269E-03
   7105.33  7.8515942E-03
   7105.67  8.1891783E-03
   7106.00  8.5635745E-03
   7106.33  8.9884327E-03
   7106.67  9.4687764E-03
   7107.00  1.0016607E-02
   7107.33  1.0661633E-02
   7107.67  1.1419772E-02
   7108.00  1.2323367E-02
   7108.33  1.3452936E-02
   7108.67  1.4870203E-02
   7109.00  1.6692571E-02
   7109.33  1.9230170E-02
   7109.67  2.2831600E-02
   7110.00  2.8180784E-02
   7110.33  3.7229631E-02
   7110.67  5.1883557E-02
   7111.00  7.1969879E-02
   7111.33  9.1949470E-02
   7111.67  1.0987310E-01
   7112.00  1.2547961E-01
   7112.33  1.3303550E-01
   7112.67  1.2947703E-01
   7113.00  1.1911807E-01
   7113.33  1.0845693E-01
   7113.67  9.8981957E-02
   7114.00  8.8910835E-02
   7114.33  7.9816665E-02
   7114.67  7.3819484E-02
   7115.00  7.1274785E-02
   7115.33  7.1166432E-02
   7115.67  7.2633691E-02
   7116.00  7.5247887E-02
   7116.33  7.7038008E-02
   7116.67  7.7978406E-02
   7117.00  8.0013194E-02
   7117.33  8.5447278E-02
   7117.67  9.4421313E-02
   7118.00  1.0650740E-01
   7118.33  1.2058745E-01
   7118.67  1.3451266E-01
   7119.00  1.4678569E-01
   7119.33  1.5594699E-01
   7119.67  1.6192955E-01
   7120.00  1.6525128E-01
   7120.33  1.6748622E-01
   7120.67  1.7066004E-01
   7121.00  1.7571071E-01
   7121.33  1.8270707E-01
   7121.67  1.9028356E-01
   7122.00  1.9766323E-01
   7122.33  2.0561946E-01
   7122.67  2.1596777E-01
   7123.00  2.2969442E-01
   7123.33  2.4660306E-01
   7123.67  2.6466468E-01
   7124.00  2.8267305E-01
   7124.33  3.0020127E-01
   7124.67  3.1760794E-01
   7125.00  3.3480044E-01
   7125.33  3.5053137E-01
   7125.67  3.6368673E-01
   7126.00  3.7424974E-01
   7126.33  3.8422640E-01
   7126.67  3.9629260E-01
   7127.00  4.1119269E-01
   7127.33  4.2828685E-01
   7127.67  4.4626984E-01
   7128.00  4.6509312E-01
   7128.33  4.8535165E-01
   7128.67  5.0679238E-01
   7129.00  5.2871327E-01
   7129.33  5.4980660E-01
   7129.67  5.6904725E-01
   7130.00  5.8602599E-01
   7130.33  6.0053540E-01
   7130.67  6.1260273E-01
   7131.00  6.2134025E-01
   7131.33  6.2463852E-01
   7131.67  6.2163776E-01
   7132.00  6.1175791E-01
   7132.33  5.9549288E-01
   7132.67  5.7652749E-01
   7133.00  5.5738985E-01
   7133.33  5.3994008E-01
   7133.67  5.2447075E-01
   7134.00  5.1100204E-01
   7134.33  4.9976726E-01
   7134.67  4.9043407E-01
   7135.00  4.8282979E-01
   7135.33  4.7711639E-01
   7135.67  4.7337025E-01
   7136.00  4.7187398E-01
   7136.33  4.7297283E-01
   7136.67  4.7606936E-01
   7137.00  4.8058567E-01
   7137.33  4.8557233E-01
   7137.67  4.8989016E-01
   7138.00  4.9287056E-01
   7138.33  4.9413048E-01
   7138.67  4.9425931E-01
   7139.00  4.9385260E-01
   7139.33  4.9363191E-01
   7139.67  4.9410214E-01
   7140.00  4.9552194E-01
   7140.33  4.9811297E-01
   7140.67  5.0165910E-01
   7141.00  5.0599247E-01
   7141.33  5.1093586E-01
   7141.67  5.1618077E-01
   7142.00  5.2156128E-01
   7142.33  5.2696208E-01
   7142.67  5.3235227E-01
   7143.00  5.3776881E-01
   7143.33  5.4331608E-01
   7143.67  5.4909124E-01
   7144.00  5.5519056E-01
   7144.33  5.6176546E-01
   7144.67  5.6883146E-01
   7145.00  5.7641225E-01
   7145.33  5.8455468E-01
   7145.67  5.9314542E-01
   7146.00  6.0212488E-01
   7146.33  6.1145330E-01
   7146.67  6.2099975E-01
   7147.00  6.3066164E-01
   7147.33  6.4026388E-01
   7147.67  6.4957032E-01
   7148.00  6.5831024E-01
   7148.33  6.6601823E-01
   7148.67  6.7248016E-01
   7149.00  6.7747095E-01
   7149.33  6.8062982E-01
   7149.67  6.8213932E-01
   7150.00  6.8208759E-01
   7150.33  6.8049527E-01
   7150.67  6.7777419E-01
   7151.00  6.7413642E-01
   7151.33  6.6972164E-01
   7151.67  6.6480341E-01
   7152.00  6.5950426E-01
   7152.33  6.5388149E-01
   7152.67  6.4800800E-01
   7153.00  6.4186952E-01
   7153.33  6.3535613E-01
   7153.67  6.2839048E-01
   7154.00  6.2084639E-01
   7154.33  6.1250383E-01
   7154.67  6.0339915E-01
   7155.00  5.9358240E-01
   7155.33  5.8314601E-01
   7155.67  5.7239886E-01
   7156.00  5.6157122E-01
   7156.33  5.5092599E-01
   7156.67  5.4063616E-01
   7157.00  5.3082625E-01
   7157.33  5.2166907E-01
   7157.67  5.1315370E-01
   7158.00  5.0531187E-01
   7158.33  4.9825391E-01
   7158.67  4.9191343E-01
   7159.00  4.8631576E-01
   7159.33  4.8160529E-01
   7159.67  4.7774421E-01
   7160.00  4.7479359E-01
   7160.33  4.7294963E-01
   7160.67  4.7215124E-01
   7161.00  4.7243221E-01
   7161.33  4.7393345E-01
   7161.67  4.7647897E-01
   7162.00  4.8000408E-01
   7162.33  4.8452147E-01
   7162.67  4.8980069E-01
   7163.00  4.9571985E-01
   7163.33  5.0217947E-01
   7163.67  5.0895499E-01
   7164.00  5.1590963E-01
   7164.33  5.2289833E-01
   7164.67  5.2978227E-01
   7165.00  5.3645692E-01
   7165.33  5.4277350E-01
   7165.67  5.4867483E-01
   7166.00  5.5408560E-01
   7166.33  5.5885650E-01
   7166.67  5.6299393E-01
   7167.00  5.6645641E-01
   7167.33  5.6912722E-01
   7167.67  5.7108844E-01
   7168.00  5.7235384E-01
   7168.33  5.7287753E-01
   7168.67  5.7279630E-01
   7169.00  5.7216700E-01
   7169.33  5.7100530E-01
   7169.67  5.6945152E-01
   7170.00  5.6757821E-01
   7170.33  5.6544169E-01
   7170.67  5.6315778E-01
   7171.00  5.6080570E-01
   7171.33  5.5850174E-01
   7171.67  5.5639796E-01
   7172.00  5.5467828E-01
