    FDMNES
    energy     <xanes>
   7097.00  4.8174170E-03
   7097.33  4.9231868E-03
   7097.67  5.0334052E-03
   7098.00  5.1483577E-03
   7098.33  5.2690492E-03
   7098.67  5.3952502E-03
   7099.00  5.5273480E-03
   7099.33  5.6666442E-03
   7099.67  5.8129029E-03
   7100.00  5.9666640E-03
   7100.33  6.1296612E-03
   7100.67  6.3016721E-03
   7101.00  6.4834759E-03
   7101.33  6.6774594E-03
   7101.67  6.8834607E-03
   7102.00  7.1026509E-03
   7102.33  7.3384524E-03
   7102.67  7.5908692E-03
   7103.00  7.8617504E-03
   7103.33  8.1562583E-03
   7103.67  8.4748076E-03
   7104.00  8.8205029E-03
   7104.33  9.2016424E-03
   7104.67  9.6196545E-03
   7105.00  1.0080170E-02
   7105.33  1.0597668E-02
   7105.67  1.1176204E-02
   7106.00  1.1827068E-02
   7106.33  1.2578426E-02
   7106.67  1.3441831E-02
   7107.00  1.4443193E-02
   7107.33  1.5646176E-02
   7107.67  1.7087331E-02
   7108.00  1.8838747E-02
   7108.33  2.1079553E-02
   7108.67  2.3952816E-02
   7109.00  2.7727571E-02
   7109.33  3.3114971E-02
   7109.67  4.0927758E-02
   7110.00  5.2757992E-02
   7110.33  7.3232204E-02
   7110.67  1.0776589E-01
   7111.00  1.5963000E-01
   7111.33  2.1433660E-01
   7111.67  2.4347615E-01
   7112.00  2.4283138E-01
   7112.33  2.2655693E-01
   7112.67  2.0669453E-01
   7113.00  1.9381100E-01
   7113.33  1.8318343E-01
   7113.67  1.5687258E-01
   7114.00  1.2327095E-01
   7114.33  9.8695272E-02
   7114.67  8.3414043E-02
   7115.00  7.4863559E-02
   7115.33  7.1481496E-02
   7115.67  7.1743868E-02
   7116.00  7.5451739E-02
   7116.33  8.3135771E-02
   7116.67  9.4144582E-02
   7117.00  1.0742768E-01
   7117.33  1.2139237E-01
   7117.67  1.3588709E-01
   7118.00  1.5209971E-01
   7118.33  1.7072112E-01
   7118.67  1.8886245E-01
   7119.00  2.0308542E-01
   7119.33  2.1243233E-01
   7119.67  2.2126893E-01
   7120.00  2.3269479E-01
   7120.33  2.4860311E-01
   7120.67  2.6824321E-01
   7121.00  2.9082584E-01
   7121.33  3.1559493E-01
   7121.67  3.4146164E-01
   7122.00  3.6783777E-01
   7122.33  3.9427076E-01
   7122.67  4.2055769E-01
   7123.00  4.4674253E-01
   7123.33  4.7289659E-01
   7123.67  4.9855722E-01
   7124.00  5.2274749E-01
   7124.33  5.4404721E-01
   7124.67  5.6290931E-01
   7125.00  5.8068485E-01
   7125.33  5.9920480E-01
   7125.67  6.1851965E-01
   7126.00  6.3708558E-01
   7126.33  6.5283120E-01
   7126.67  6.6645451E-01
   7127.00  6.7931394E-01
   7127.33  6.9181158E-01
   7127.67  7.0230718E-01
   7128.00  7.0842078E-01
   7128.33  7.0778836E-01
   7128.67  7.0228854E-01
   7129.00  6.9431566E-01
   7129.33  6.8641159E-01
   7129.67  6.7982205E-01
   7130.00  6.7463683E-01
   7130.33  6.7043368E-01
   7130.67  6.6638630E-01
   7131.00  6.6198294E-01
   7131.33  6.5678729E-01
   7131.67  6.5078369E-01
   7132.00  6.4395853E-01
   7132.33  6.3607194E-01
   7132.67  6.2695800E-01
   7133.00  6.1647471E-01
   7133.33  6.0504818E-01
   7133.67  5.9419840E-01
   7134.00  5.8510049E-01
   7134.33  5.7837936E-01
   7134.67  5.7318388E-01
   7135.00  5.6871018E-01
   7135.33  5.6409518E-01
   7135.67  5.5889311E-01
   7136.00  5.5307815E-01
   7136.33  5.4689390E-01
   7136.67  5.4080804E-01
   7137.00  5.3516144E-01
   7137.33  5.3031581E-01
   7137.67  5.2629926E-01
   7138.00  5.2311233E-01
   7138.33  5.2079057E-01
   7138.67  5.1915430E-01
   7139.00  5.1812829E-01
   7139.33  5.1768988E-01
   7139.67  5.1768773E-01
   7140.00  5.1805353E-01
   7140.33  5.1875766E-01
   7140.67  5.1971008E-01
   7141.00  5.2086776E-01
   7141.33  5.2218198E-01
   7141.67  5.2353726E-01
   7142.00  5.2481711E-01
   7142.33  5.2582163E-01
   7142.67  5.2639611E-01
   7143.00  5.2639386E-01
   7143.33  5.2560423E-01
   7143.67  5.2407067E-01
   7144.00  5.2182734E-01
   7144.33  5.1890739E-01
   7144.67  5.1554186E-01
   7145.00  5.1188621E-01
   7145.33  5.0811473E-01
   7145.67  5.0441511E-01
   7146.00  5.0091575E-01
   7146.33  4.9777046E-01
   7146.67  4.9501042E-01
   7147.00  4.9266286E-01
   7147.33  4.9077625E-01
   7147.67  4.8926222E-01
   7148.00  4.8806480E-01
   7148.33  4.8712605E-01
   7148.67  4.8632297E-01
   7149.00  4.8557743E-01
   7149.33  4.8480332E-01
   7149.67  4.8393399E-01
   7150.00  4.8291963E-01
   7150.33  4.8168453E-01
   7150.67  4.8021087E-01
   7151.00  4.7846900E-01
   7151.33  4.7639424E-01
   7151.67  4.7400329E-01
   7152.00  4.7128371E-01
   7152.33  4.6819131E-01
   7152.67  4.6478181E-01
   7153.00  4.6108104E-01
   7153.33  4.5710284E-01
   7153.67  4.5293730E-01
   7154.00  4.4864454E-01
   7154.33  4.4429573E-01
   7154.67  4.3997714E-01
   7155.00  4.3575517E-01
   7155.33  4.3172226E-01
   7155.67  4.2792049E-01
   7156.00  4.2439646E-01
   7156.33  4.2123599E-01
   7156.67  4.1843485E-01
   7157.00  4.1601798E-01
   7157.33  4.1405972E-01
   7157.67  4.1252743E-01
   7158.00  4.1143466E-01
   7158.33  4.1085343E-01
   7158.67  4.1074179E-01
   7159.00  4.1111192E-01
   7159.33  4.1203688E-01
   7159.67  4.1346133E-01
   7160.00  4.1538614E-01
   7160.33  4.1786688E-01
   7160.67  4.2082514E-01
   7161.00  4.2423533E-01
   7161.33  4.2809802E-01
   7161.67  4.3228460E-01
   7162.00  4.3671323E-01
   7162.33  4.4129738E-01
   7162.67  4.4590282E-01
   7163.00  4.5041800E-01
   7163.33  4.5467810E-01
   7163.67  4.5858910E-01
   7164.00  4.6207091E-01
   7164.33  4.6499446E-01
   7164.67  4.6738371E-01
   7165.00  4.6923025E-01
   7165.33  4.7048551E-01
   7165.67  4.7125795E-01
   7166.00  4.7160092E-01
   7166.33  4.7154642E-01
   7166.67  4.7122373E-01
   7167.00  4.7070772E-01
   7167.33  4.7006870E-01
   7167.67  4.6939644E-01
   7168.00  4.6874696E-01
   7168.33  4.6818254E-01
   7168.67  4.6773241E-01
   7169.00  4.6741835E-01
   7169.33  4.6727193E-01
   7169.67  4.6727538E-01
   7170.00  4.6742117E-01
   7170.33  4.6770836E-01
   7170.67  4.6809757E-01
   7171.00  4.6856308E-01
   7171.33  4.6907137E-01
   7171.67  4.6956501E-01
   7172.00  4.6998584E-01
