    FDMNES
    energy     <xanes>
   7097.00  4.4881237E-03
   7097.33  4.5852482E-03
   7097.67  4.6866784E-03
   7098.00  4.7927105E-03
   7098.33  4.9043502E-03
   7098.67  5.0214020E-03
   7099.00  5.1442735E-03
   7099.33  5.2742895E-03
   7099.67  5.4112555E-03
   7100.00  5.5557484E-03
   7100.33  5.7095633E-03
   7100.67  5.8725315E-03
   7101.00  6.0454972E-03
   7101.33  6.2309750E-03
   7101.67  6.4288770E-03
   7102.00  6.6404882E-03
   7102.33  6.8694762E-03
   7102.67  7.1159554E-03
   7103.00  7.3819775E-03
   7103.33  7.6731614E-03
   7103.67  7.9901045E-03
   7104.00  8.3362806E-03
   7104.33  8.7208435E-03
   7104.67  9.1455575E-03
   7105.00  9.6167579E-03
   7105.33  1.0150580E-02
   7105.67  1.0751776E-02
   7106.00  1.1433077E-02
   7106.33  1.2226072E-02
   7106.67  1.3143975E-02
   7107.00  1.4216010E-02
   7107.33  1.5513787E-02
   7107.67  1.7078711E-02
   7108.00  1.8992132E-02
   7108.33  2.1456232E-02
   7108.67  2.4633704E-02
   7109.00  2.8831105E-02
   7109.33  3.4863345E-02
   7109.67  4.3678654E-02
   7110.00  5.7142378E-02
   7110.33  8.0590781E-02
   7110.67  1.1894221E-01
   7111.00  1.6961703E-01
   7111.33  2.1176189E-01
   7111.67  2.4443082E-01
   7112.00  2.7194400E-01
   7112.33  2.8494115E-01
   7112.67  2.7913563E-01
   7113.00  2.5733615E-01
   7113.33  2.2802880E-01
   7113.67  2.0197603E-01
   7114.00  1.8480243E-01
   7114.33  1.8021078E-01
   7114.67  1.8109911E-01
   7115.00  1.7418665E-01
   7115.33  1.5138021E-01
   7115.67  1.2619669E-01
   7116.00  1.0629649E-01
   7116.33  9.3700819E-02
   7116.67  8.6082409E-02
   7117.00  8.2137703E-02
   7117.33  8.1124115E-02
   7117.67  8.2038963E-02
   7118.00  8.4591191E-02
   7118.33  8.8972826E-02
   7118.67  9.5026192E-02
   7119.00  1.0236368E-01
   7119.33  1.0954165E-01
   7119.67  1.1494108E-01
   7120.00  1.1862841E-01
   7120.33  1.2212273E-01
   7120.67  1.2653119E-01
   7121.00  1.3212851E-01
   7121.33  1.3920610E-01
   7121.67  1.4764420E-01
   7122.00  1.5736449E-01
   7122.33  1.6853890E-01
   7122.67  1.8126874E-01
   7123.00  1.9555144E-01
   7123.33  2.1104026E-01
   7123.67  2.2712022E-01
   7124.00  2.4363610E-01
   7124.33  2.6034696E-01
   7124.67  2.7639516E-01
   7125.00  2.9085638E-01
   7125.33  3.0308390E-01
   7125.67  3.1394827E-01
   7126.00  3.2416139E-01
   7126.33  3.3377848E-01
   7126.67  3.4246190E-01
   7127.00  3.5022705E-01
   7127.33  3.5762154E-01
   7127.67  3.6510585E-01
   7128.00  3.7259416E-01
   7128.33  3.7983231E-01
   7128.67  3.8694722E-01
   7129.00  3.9425977E-01
   7129.33  4.0191592E-01
   7129.67  4.0913441E-01
   7130.00  4.1473160E-01
   7130.33  4.1733308E-01
   7130.67  4.1715675E-01
   7131.00  4.1450067E-01
   7131.33  4.0955842E-01
   7131.67  4.0348548E-01
   7132.00  3.9765542E-01
   7132.33  3.9429300E-01
   7132.67  3.9481778E-01
   7133.00  4.0017683E-01
   7133.33  4.1149064E-01
   7133.67  4.2798032E-01
   7134.00  4.4922783E-01
   7134.33  4.7500587E-01
   7134.67  5.0389512E-01
   7135.00  5.3506611E-01
   7135.33  5.6757206E-01
   7135.67  5.9952392E-01
   7136.00  6.2851979E-01
   7136.33  6.5014418E-01
   7136.67  6.6208902E-01
   7137.00  6.6332808E-01
   7137.33  6.5404394E-01
   7137.67  6.3871256E-01
   7138.00  6.2060828E-01
   7138.33  6.0301622E-01
   7138.67  5.8798687E-01
   7139.00  5.7642586E-01
   7139.33  5.6903445E-01
   7139.67  5.6500145E-01
   7140.00  5.6377413E-01
   7140.33  5.6488682E-01
   7140.67  5.6744639E-01
   7141.00  5.7107984E-01
   7141.33  5.7568499E-01
   7141.67  5.8114979E-01
   7142.00  5.8758285E-01
   7142.33  5.9529236E-01
   7142.67  6.0425087E-01
   7143.00  6.1445232E-01
   7143.33  6.2585168E-01
   7143.67  6.3793748E-01
   7144.00  6.5024000E-01
   7144.33  6.6206361E-01
   7144.67  6.7282760E-01
   7145.00  6.8208173E-01
   7145.33  6.8929135E-01
   7145.67  6.9467465E-01
   7146.00  6.9844832E-01
   7146.33  7.0087987E-01
   7146.67  7.0257552E-01
   7147.00  7.0387516E-01
   7147.33  7.0504901E-01
   7147.67  7.0624074E-01
   7148.00  7.0745714E-01
   7148.33  7.0863255E-01
   7148.67  7.0967241E-01
   7149.00  7.1047488E-01
   7149.33  7.1087034E-01
   7149.67  7.1079459E-01
   7150.00  7.1017549E-01
   7150.33  7.0888422E-01
   7150.67  7.0697544E-01
   7151.00  7.0445795E-01
   7151.33  7.0129446E-01
   7151.67  6.9760831E-01
   7152.00  6.9344945E-01
   7152.33  6.8882175E-01
   7152.67  6.8382437E-01
   7153.00  6.7848769E-01
   7153.33  6.7279519E-01
   7153.67  6.6679891E-01
   7154.00  6.6050508E-01
   7154.33  6.5388453E-01
   7154.67  6.4698746E-01
   7155.00  6.3983640E-01
   7155.33  6.3244757E-01
   7155.67  6.2491128E-01
   7156.00  6.1729999E-01
   7156.33  6.0971828E-01
   7156.67  6.0227566E-01
   7157.00  5.9507151E-01
   7157.33  5.8826304E-01
   7157.67  5.8191149E-01
   7158.00  5.7608956E-01
   7158.33  5.7092021E-01
   7158.67  5.6633980E-01
   7159.00  5.6232693E-01
   7159.33  5.5889189E-01
   7159.67  5.5588528E-01
   7160.00  5.5322343E-01
   7160.33  5.5085297E-01
   7160.67  5.4866962E-01
   7161.00  5.4662329E-01
   7161.33  5.4468162E-01
   7161.67  5.4280360E-01
   7162.00  5.4097243E-01
   7162.33  5.3917714E-01
   7162.67  5.3740150E-01
   7163.00  5.3563646E-01
   7163.33  5.3387367E-01
   7163.67  5.3210825E-01
   7164.00  5.3034151E-01
   7164.33  5.2858429E-01
   7164.67  5.2685567E-01
   7165.00  5.2518135E-01
   7165.33  5.2361041E-01
   7165.67  5.2217328E-01
   7166.00  5.2090546E-01
   7166.33  5.1986799E-01
   7166.67  5.1906041E-01
   7167.00  5.1849729E-01
   7167.33  5.1822237E-01
   7167.67  5.1819284E-01
   7168.00  5.1837856E-01
   7168.33  5.1874928E-01
   7168.67  5.1922096E-01
   7169.00  5.1973242E-01
   7169.33  5.2020648E-01
   7169.67  5.2058011E-01
   7170.00  5.2080675E-01
   7170.33  5.2082912E-01
   7170.67  5.2066139E-01
   7171.00  5.2031903E-01
   7171.33  5.1983231E-01
   7171.67  5.1929787E-01
   7172.00  5.1881081E-01
