    FDMNES
    energy     <xanes>
   7097.00  4.5020759E-03
   7097.33  4.5980966E-03
   7097.67  4.6982507E-03
   7098.00  4.8028138E-03
   7098.33  4.9127360E-03
   7098.67  5.0278170E-03
   7099.00  5.1484324E-03
   7099.33  5.2758222E-03
   7099.67  5.4097818E-03
   7100.00  5.5508369E-03
   7100.33  5.7006493E-03
   7100.67  5.8590292E-03
   7101.00  6.0267357E-03
   7101.33  6.2060665E-03
   7101.67  6.3968888E-03
   7102.00  6.6003399E-03
   7102.33  6.8197175E-03
   7102.67  7.0550392E-03
   7103.00  7.3080856E-03
   7103.33  7.5838089E-03
   7103.67  7.8825877E-03
   7104.00  8.2073643E-03
   7104.33  8.5660031E-03
   7104.67  8.9597452E-03
   7105.00  9.3937907E-03
   7105.33  9.8815486E-03
   7105.67  1.0426408E-02
   7106.00  1.1038395E-02
   7106.33  1.1742613E-02
   7106.67  1.2548281E-02
   7107.00  1.3477156E-02
   7107.33  1.4582732E-02
   7107.67  1.5892456E-02
   7108.00  1.7462349E-02
   7108.33  1.9430661E-02
   7108.67  2.1896675E-02
   7109.00  2.5049411E-02
   7109.33  2.9379785E-02
   7109.67  3.5402359E-02
   7110.00  4.4117416E-02
   7110.33  5.8343181E-02
   7110.67  8.0929106E-02
   7111.00  1.1282392E-01
   7111.33  1.5019540E-01
   7111.67  1.9042590E-01
   7112.00  2.3222908E-01
   7112.33  2.7313841E-01
   7112.67  3.1148749E-01
   7113.00  3.4787940E-01
   7113.33  3.6735727E-01
   7113.67  3.4088407E-01
   7114.00  2.7315025E-01
   7114.33  2.0724515E-01
   7114.67  1.6060421E-01
   7115.00  1.3007533E-01
   7115.33  1.1104786E-01
   7115.67  9.8188511E-02
   7116.00  8.9354078E-02
   7116.33  8.3162708E-02
   7116.67  7.8474068E-02
   7117.00  7.5193674E-02
   7117.33  7.3381487E-02
   7117.67  7.2638555E-02
   7118.00  7.2954572E-02
   7118.33  7.4679579E-02
   7118.67  7.7605082E-02
   7119.00  8.1391698E-02
   7119.33  8.5735621E-02
   7119.67  9.0388130E-02
   7120.00  9.5070710E-02
   7120.33  9.9404829E-02
   7120.67  1.0367220E-01
   7121.00  1.0845008E-01
   7121.33  1.1434517E-01
   7121.67  1.2141715E-01
   7122.00  1.2976722E-01
   7122.33  1.3975308E-01
   7122.67  1.5128951E-01
   7123.00  1.6419981E-01
   7123.33  1.7818593E-01
   7123.67  1.9304460E-01
   7124.00  2.0924152E-01
   7124.33  2.2769214E-01
   7124.67  2.4814756E-01
   7125.00  2.6979400E-01
   7125.33  2.9079845E-01
   7125.67  3.0905676E-01
   7126.00  3.2314435E-01
   7126.33  3.3276090E-01
   7126.67  3.4083196E-01
   7127.00  3.4987940E-01
   7127.33  3.6162359E-01
   7127.67  3.7514888E-01
   7128.00  3.8900452E-01
   7128.33  4.0147380E-01
   7128.67  4.1212181E-01
   7129.00  4.2128899E-01
   7129.33  4.2981147E-01
   7129.67  4.3874350E-01
   7130.00  4.4878215E-01
   7130.33  4.6066800E-01
   7130.67  4.7440979E-01
   7131.00  4.8997058E-01
   7131.33  5.0731027E-01
   7131.67  5.2581967E-01
   7132.00  5.4503994E-01
   7132.33  5.6438267E-01
   7132.67  5.8316921E-01
   7133.00  6.0075213E-01
   7133.33  6.1608089E-01
   7133.67  6.2876666E-01
   7134.00  6.3858562E-01
   7134.33  6.4540017E-01
   7134.67  6.5009900E-01
   7135.00  6.5327781E-01
   7135.33  6.5545075E-01
   7135.67  6.5718497E-01
   7136.00  6.5877661E-01
   7136.33  6.6050737E-01
   7136.67  6.6252278E-01
   7137.00  6.6485545E-01
   7137.33  6.6745326E-01
   7137.67  6.7012380E-01
   7138.00  6.7272863E-01
   7138.33  6.7515685E-01
   7138.67  6.7743847E-01
   7139.00  6.7965932E-01
   7139.33  6.8199665E-01
   7139.67  6.8463083E-01
   7140.00  6.8771621E-01
   7140.33  6.9145855E-01
   7140.67  6.9584555E-01
   7141.00  7.0086498E-01
   7141.33  7.0650050E-01
   7141.67  7.1253496E-01
   7142.00  7.1880099E-01
   7142.33  7.2507092E-01
   7142.67  7.3109317E-01
   7143.00  7.3664413E-01
   7143.33  7.4137818E-01
   7143.67  7.4515433E-01
   7144.00  7.4779504E-01
   7144.33  7.4895416E-01
   7144.67  7.4866923E-01
   7145.00  7.4689061E-01
   7145.33  7.4344505E-01
   7145.67  7.3859725E-01
   7146.00  7.3245958E-01
   7146.33  7.2506020E-01
   7146.67  7.1673431E-01
   7147.00  7.0766092E-01
   7147.33  6.9798400E-01
   7147.67  6.8797392E-01
   7148.00  6.7779121E-01
   7148.33  6.6759646E-01
   7148.67  6.5752060E-01
   7149.00  6.4764749E-01
   7149.33  6.3807751E-01
   7149.67  6.2881484E-01
   7150.00  6.1987361E-01
   7150.33  6.1129355E-01
   7150.67  6.0302157E-01
   7151.00  5.9504110E-01
   7151.33  5.8736713E-01
   7151.67  5.7994998E-01
   7152.00  5.7277575E-01
   7152.33  5.6585269E-01
   7152.67  5.5912993E-01
   7153.00  5.5258565E-01
   7153.33  5.4621056E-01
   7153.67  5.3995658E-01
   7154.00  5.3379972E-01
   7154.33  5.2772583E-01
   7154.67  5.2171310E-01
   7155.00  5.1576456E-01
   7155.33  5.0991528E-01
   7155.67  5.0420379E-01
   7156.00  4.9869292E-01
   7156.33  4.9350932E-01
   7156.67  4.8871393E-01
   7157.00  4.8438459E-01
   7157.33  4.8065974E-01
   7157.67  4.7751351E-01
   7158.00  4.7495396E-01
   7158.33  4.7302931E-01
   7158.67  4.7161685E-01
   7159.00  4.7065301E-01
   7159.33  4.7009327E-01
   7159.67  4.6979492E-01
   7160.00  4.6967344E-01
   7160.33  4.6964555E-01
   7160.67  4.6961829E-01
   7161.00  4.6953399E-01
   7161.33  4.6933516E-01
   7161.67  4.6901377E-01
   7162.00  4.6856475E-01
   7162.33  4.6798666E-01
   7162.67  4.6732849E-01
   7163.00  4.6662890E-01
   7163.33  4.6593688E-01
   7163.67  4.6529888E-01
   7164.00  4.6475235E-01
   7164.33  4.6435185E-01
   7164.67  4.6411283E-01
   7165.00  4.6405699E-01
   7165.33  4.6422899E-01
   7165.67  4.6461712E-01
   7166.00  4.6522919E-01
   7166.33  4.6609937E-01
   7166.67  4.6720118E-01
   7167.00  4.6853384E-01
   7167.33  4.7012166E-01
   7167.67  4.7192869E-01
   7168.00  4.7394520E-01
   7168.33  4.7618031E-01
   7168.67  4.7859054E-01
   7169.00  4.8115632E-01
   7169.33  4.8386772E-01
   7169.67  4.8667895E-01
   7170.00  4.8956158E-01
   7170.33  4.9248256E-01
   7170.67  4.9539285E-01
   7171.00  4.9824313E-01
   7171.33  5.0093285E-01
   7171.67  5.0334494E-01
   7172.00  5.0531246E-01
