    FDMNES
    energy     <xanes>
   7097.00  4.3962359E-03
   7097.33  4.4834798E-03
   7097.67  4.5740007E-03
   7098.00  4.6679887E-03
   7098.33  4.7661493E-03
   7098.67  4.8682862E-03
   7099.00  4.9746508E-03
   7099.33  5.0861358E-03
   7099.67  5.2025325E-03
   7100.00  5.3241838E-03
   7100.33  5.4522475E-03
   7100.67  5.5865130E-03
   7101.00  5.7274629E-03
   7101.33  5.8766474E-03
   7101.67  6.0338774E-03
   7102.00  6.1998609E-03
   7102.33  6.3767564E-03
   7102.67  6.5644517E-03
   7103.00  6.7640389E-03
   7103.33  6.9786776E-03
   7103.67  7.2084636E-03
   7104.00  7.4551910E-03
   7104.33  7.7237933E-03
   7104.67  8.0149013E-03
   7105.00  8.3317095E-03
   7105.33  8.6826058E-03
   7105.67  9.0696405E-03
   7106.00  9.4991378E-03
   7106.33  9.9870948E-03
   7106.67  1.0539695E-02
   7107.00  1.1171397E-02
   7107.33  1.1918035E-02
   7107.67  1.2799906E-02
   7108.00  1.3857659E-02
   7108.33  1.5193062E-02
   7108.67  1.6888851E-02
   7109.00  1.9102018E-02
   7109.33  2.2253221E-02
   7109.67  2.6842427E-02
   7110.00  3.3858891E-02
   7110.33  4.6153531E-02
   7110.67  6.6363091E-02
   7111.00  9.2648096E-02
   7111.33  1.0990807E-01
   7111.67  1.1746957E-01
   7112.00  1.2624526E-01
   7112.33  1.3637589E-01
   7112.67  1.3176554E-01
   7113.00  1.1009635E-01
   7113.33  8.8003985E-02
   7113.67  7.2412717E-02
   7114.00  6.2550635E-02
   7114.33  5.7173370E-02
   7114.67  5.4524605E-02
   7115.00  5.3960730E-02
   7115.33  5.5313435E-02
   7115.67  5.8262977E-02
   7116.00  6.2841685E-02
   7116.33  6.9304369E-02
   7116.67  7.7361668E-02
   7117.00  8.6915690E-02
   7117.33  9.8406270E-02
   7117.67  1.1225768E-01
   7118.00  1.2907030E-01
   7118.33  1.5004565E-01
   7118.67  1.7564045E-01
   7119.00  2.0649742E-01
   7119.33  2.4320064E-01
   7119.67  2.8397338E-01
   7120.00  3.2723600E-01
   7120.33  3.7038607E-01
   7120.67  4.0921881E-01
   7121.00  4.3838042E-01
   7121.33  4.4971427E-01
   7121.67  4.4407101E-01
   7122.00  4.2629234E-01
   7122.33  4.0478224E-01
   7122.67  3.8738340E-01
   7123.00  3.7675317E-01
   7123.33  3.7216479E-01
   7123.67  3.7034928E-01
   7124.00  3.7056230E-01
   7124.33  3.7335868E-01
   7124.67  3.7842618E-01
   7125.00  3.8542566E-01
   7125.33  3.9460838E-01
   7125.67  4.0646554E-01
   7126.00  4.2169218E-01
   7126.33  4.4120936E-01
   7126.67  4.6479063E-01
   7127.00  4.9253063E-01
   7127.33  5.2425252E-01
   7127.67  5.5732237E-01
   7128.00  5.8847133E-01
   7128.33  6.1253118E-01
   7128.67  6.2738474E-01
   7129.00  6.3290363E-01
   7129.33  6.3023233E-01
   7129.67  6.2308436E-01
   7130.00  6.1357710E-01
   7130.33  6.0346646E-01
   7130.67  5.9411984E-01
   7131.00  5.8644756E-01
   7131.33  5.8151459E-01
   7131.67  5.7914736E-01
   7132.00  5.7887899E-01
   7132.33  5.8006865E-01
   7132.67  5.8202041E-01
   7133.00  5.8460221E-01
   7133.33  5.8785567E-01
   7133.67  5.9146629E-01
   7134.00  5.9499789E-01
   7134.33  5.9784725E-01
   7134.67  5.9969811E-01
   7135.00  6.0035055E-01
   7135.33  5.9977959E-01
   7135.67  5.9865407E-01
   7136.00  5.9757304E-01
   7136.33  5.9719130E-01
   7136.67  5.9774062E-01
   7137.00  5.9925814E-01
   7137.33  6.0164789E-01
   7137.67  6.0438459E-01
   7138.00  6.0690825E-01
   7138.33  6.0823278E-01
   7138.67  6.0752813E-01
   7139.00  6.0404494E-01
   7139.33  5.9688190E-01
   7139.67  5.8663829E-01
   7140.00  5.7407907E-01
   7140.33  5.6044747E-01
   7140.67  5.4730866E-01
   7141.00  5.3566056E-01
   7141.33  5.2651836E-01
   7141.67  5.1995402E-01
   7142.00  5.1604150E-01
   7142.33  5.1500800E-01
   7142.67  5.1632254E-01
   7143.00  5.1975088E-01
   7143.33  5.2520674E-01
   7143.67  5.3211375E-01
   7144.00  5.4013058E-01
   7144.33  5.4888223E-01
   7144.67  5.5776755E-01
   7145.00  5.6630930E-01
   7145.33  5.7385456E-01
   7145.67  5.8006003E-01
   7146.00  5.8466490E-01
   7146.33  5.8734763E-01
   7146.67  5.8842877E-01
   7147.00  5.8813638E-01
   7147.33  5.8668900E-01
   7147.67  5.8457703E-01
   7148.00  5.8207616E-01
   7148.33  5.7940850E-01
   7148.67  5.7672371E-01
   7149.00  5.7405920E-01
   7149.33  5.7140046E-01
   7149.67  5.6867892E-01
   7150.00  5.6579914E-01
   7150.33  5.6259300E-01
   7150.67  5.5897072E-01
   7151.00  5.5483740E-01
   7151.33  5.5003760E-01
   7151.67  5.4461262E-01
   7152.00  5.3858475E-01
   7152.33  5.3197628E-01
   7152.67  5.2499577E-01
   7153.00  5.1780242E-01
   7153.33  5.1060276E-01
   7153.67  5.0360607E-01
   7154.00  4.9697694E-01
   7154.33  4.9094270E-01
   7154.67  4.8555882E-01
   7155.00  4.8089695E-01
   7155.33  4.7710170E-01
   7155.67  4.7409318E-01
   7156.00  4.7186501E-01
   7156.33  4.7048527E-01
   7156.67  4.6981761E-01
   7157.00  4.6981405E-01
   7157.33  4.7047824E-01
   7157.67  4.7165231E-01
   7158.00  4.7325681E-01
   7158.33  4.7523353E-01
   7158.67  4.7743667E-01
   7159.00  4.7977673E-01
   7159.33  4.8215997E-01
   7159.67  4.8449447E-01
   7160.00  4.8671815E-01
   7160.33  4.8875794E-01
   7160.67  4.9060639E-01
   7161.00  4.9225800E-01
   7161.33  4.9369858E-01
   7161.67  4.9497497E-01
   7162.00  4.9611385E-01
   7162.33  4.9713445E-01
   7162.67  4.9807849E-01
   7163.00  4.9896284E-01
   7163.33  4.9978966E-01
   7163.67  5.0056235E-01
   7164.00  5.0126877E-01
   7164.33  5.0187313E-01
   7164.67  5.0235355E-01
   7165.00  5.0267721E-01
   7165.33  5.0278142E-01
   7165.67  5.0265767E-01
   7166.00  5.0228522E-01
   7166.33  5.0161810E-01
   7166.67  5.0068849E-01
   7167.00  4.9950483E-01
   7167.33  4.9805550E-01
   7167.67  4.9639471E-01
   7168.00  4.9454775E-01
   7168.33  4.9252863E-01
   7168.67  4.9039326E-01
   7169.00  4.8817578E-01
   7169.33  4.8591296E-01
   7169.67  4.8365339E-01
   7170.00  4.8143565E-01
   7170.33  4.7931570E-01
   7170.67  4.7732632E-01
   7171.00  4.7550296E-01
   7171.33  4.7391179E-01
   7171.67  4.7257181E-01
   7172.00  4.7152493E-01
