    FDMNES
    energy     <xanes>
   7097.00  4.7336333E-03
   7097.33  4.8376187E-03
   7097.67  4.9459572E-03
   7098.00  5.0589252E-03
   7098.33  5.1775000E-03
   7098.67  5.3014516E-03
   7099.00  5.4311522E-03
   7099.33  5.5678613E-03
   7099.67  5.7113388E-03
   7100.00  5.8620989E-03
   7100.33  6.0218072E-03
   7100.67  6.1902292E-03
   7101.00  6.3680984E-03
   7101.33  6.5576851E-03
   7101.67  6.7587977E-03
   7102.00  6.9725214E-03
   7102.33  7.2020669E-03
   7102.67  7.4473680E-03
   7103.00  7.7101037E-03
   7103.33  7.9950243E-03
   7103.67  8.3023768E-03
   7104.00  8.6349045E-03
   7104.33  9.0000412E-03
   7104.67  9.3987948E-03
   7105.00  9.8359616E-03
   7105.33  1.0324037E-02
   7105.67  1.0865933E-02
   7106.00  1.1470798E-02
   7106.33  1.2161691E-02
   7106.67  1.2946665E-02
   7107.00  1.3845314E-02
   7107.33  1.4905953E-02
   7107.67  1.6152428E-02
   7108.00  1.7634108E-02
   7108.33  1.9472513E-02
   7108.67  2.1751098E-02
   7109.00  2.4628876E-02
   7109.33  2.8512546E-02
   7109.67  3.3800479E-02
   7110.00  4.1256107E-02
   7110.33  5.3021706E-02
   7110.67  7.1719019E-02
   7111.00  1.0093278E-01
   7111.33  1.4481919E-01
   7111.67  1.9905933E-01
   7112.00  2.5360983E-01
   7112.33  2.9749674E-01
   7112.67  3.1026146E-01
   7113.00  2.8133775E-01
   7113.33  2.4567688E-01
   7113.67  2.1944300E-01
   7114.00  1.9047179E-01
   7114.33  1.5422807E-01
   7114.67  1.2475116E-01
   7115.00  1.0617011E-01
   7115.33  9.6157736E-02
   7115.67  8.9843518E-02
   7116.00  8.6324206E-02
   7116.33  8.6501094E-02
   7116.67  8.9874621E-02
   7117.00  9.6117302E-02
   7117.33  1.0522354E-01
   7117.67  1.1648084E-01
   7118.00  1.2939551E-01
   7118.33  1.4356446E-01
   7118.67  1.5887831E-01
   7119.00  1.7592549E-01
   7119.33  1.9547511E-01
   7119.67  2.1675183E-01
   7120.00  2.3865284E-01
   7120.33  2.5953171E-01
   7120.67  2.7829152E-01
   7121.00  2.9451328E-01
   7121.33  3.0829324E-01
   7121.67  3.2091698E-01
   7122.00  3.3333216E-01
   7122.33  3.4640669E-01
   7122.67  3.6059349E-01
   7123.00  3.7619237E-01
   7123.33  3.9305458E-01
   7123.67  4.1005930E-01
   7124.00  4.2703330E-01
   7124.33  4.4541644E-01
   7124.67  4.6619325E-01
   7125.00  4.8881901E-01
   7125.33  5.1113840E-01
   7125.67  5.3101567E-01
   7126.00  5.4711028E-01
   7126.33  5.5780672E-01
   7126.67  5.6316784E-01
   7127.00  5.6324480E-01
   7127.33  5.5853659E-01
   7127.67  5.5164022E-01
   7128.00  5.4452490E-01
   7128.33  5.3899045E-01
   7128.67  5.3574950E-01
   7129.00  5.3521797E-01
   7129.33  5.3778224E-01
   7129.67  5.4264023E-01
   7130.00  5.4922261E-01
   7130.33  5.5709134E-01
   7130.67  5.6569856E-01
   7131.00  5.7482957E-01
   7131.33  5.8447425E-01
   7131.67  5.9479585E-01
   7132.00  6.0619211E-01
   7132.33  6.1906946E-01
   7132.67  6.3266596E-01
   7133.00  6.4598712E-01
   7133.33  6.5794172E-01
   7133.67  6.6824134E-01
   7134.00  6.7684017E-01
   7134.33  6.8375131E-01
   7134.67  6.8935115E-01
   7135.00  6.9364841E-01
   7135.33  6.9637952E-01
   7135.67  6.9773922E-01
   7136.00  6.9784747E-01
   7136.33  6.9673133E-01
   7136.67  6.9468495E-01
   7137.00  6.9183626E-01
   7137.33  6.8824162E-01
   7137.67  6.8411166E-01
   7138.00  6.7954635E-01
   7138.33  6.7461012E-01
   7138.67  6.6944107E-01
   7139.00  6.6411810E-01
   7139.33  6.5871269E-01
   7139.67  6.5328016E-01
   7140.00  6.4783530E-01
   7140.33  6.4239180E-01
   7140.67  6.3696467E-01
   7141.00  6.3156621E-01
   7141.33  6.2621310E-01
   7141.67  6.2090979E-01
   7142.00  6.1566417E-01
   7142.33  6.1049500E-01
   7142.67  6.0540708E-01
   7143.00  6.0041479E-01
   7143.33  5.9555152E-01
   7143.67  5.9082269E-01
   7144.00  5.8624503E-01
   7144.33  5.8186432E-01
   7144.67  5.7768220E-01
   7145.00  5.7370538E-01
   7145.33  5.6995409E-01
   7145.67  5.6638982E-01
   7146.00  5.6299487E-01
   7146.33  5.5975934E-01
   7146.67  5.5663170E-01
   7147.00  5.5357910E-01
   7147.33  5.5056375E-01
   7147.67  5.4753759E-01
   7148.00  5.4446282E-01
   7148.33  5.4128455E-01
   7148.67  5.3797291E-01
   7149.00  5.3449534E-01
   7149.33  5.3079585E-01
   7149.67  5.2688072E-01
   7150.00  5.2274058E-01
   7150.33  5.1833858E-01
   7150.67  5.1370486E-01
   7151.00  5.0884885E-01
   7151.33  5.0376469E-01
   7151.67  4.9850522E-01
   7152.00  4.9309981E-01
   7152.33  4.8757392E-01
   7152.67  4.8198310E-01
   7153.00  4.7636518E-01
   7153.33  4.7076621E-01
   7153.67  4.6522654E-01
   7154.00  4.5978372E-01
   7154.33  4.5450354E-01
   7154.67  4.4940590E-01
   7155.00  4.4451317E-01
   7155.33  4.3987534E-01
   7155.67  4.3548109E-01
   7156.00  4.3134015E-01
   7156.33  4.2749025E-01
   7156.67  4.2389914E-01
   7157.00  4.2056349E-01
   7157.33  4.1750585E-01
   7157.67  4.1468200E-01
   7158.00  4.1207763E-01
   7158.33  4.0969983E-01
   7158.67  4.0750566E-01
   7159.00  4.0548133E-01
   7159.33  4.0363252E-01
   7159.67  4.0192896E-01
   7160.00  4.0036431E-01
   7160.33  3.9895110E-01
   7160.67  3.9767227E-01
   7161.00  3.9653062E-01
   7161.33  3.9554920E-01
   7161.67  3.9471586E-01
   7162.00  3.9403478E-01
   7162.33  3.9353093E-01
   7162.67  3.9318949E-01
   7163.00  3.9301361E-01
   7163.33  3.9302639E-01
   7163.67  3.9320723E-01
   7164.00  3.9355553E-01
   7164.33  3.9409044E-01
   7164.67  3.9478896E-01
   7165.00  3.9564849E-01
   7165.33  3.9668496E-01
   7165.67  3.9787452E-01
   7166.00  3.9921299E-01
   7166.33  4.0071232E-01
   7166.67  4.0234673E-01
   7167.00  4.0410710E-01
   7167.33  4.0599387E-01
   7167.67  4.0797645E-01
   7168.00  4.1003884E-01
   7168.33  4.1216820E-01
   7168.67  4.1433498E-01
   7169.00  4.1651878E-01
   7169.33  4.1869430E-01
   7169.67  4.2083818E-01
   7170.00  4.2293005E-01
   7170.33  4.2493717E-01
   7170.67  4.2684509E-01
   7171.00  4.2863076E-01
   7171.33  4.3023913E-01
   7171.67  4.3163459E-01
   7172.00  4.3275017E-01
