    FDMNES
    energy     <xanes>
   7097.00  5.3497535E-03
   7097.33  5.4838452E-03
   7097.67  5.6243437E-03
   7098.00  5.7716977E-03
   7098.33  5.9274152E-03
   7098.67  6.0912126E-03
   7099.00  6.2637043E-03
   7099.33  6.4468754E-03
   7099.67  6.6404383E-03
   7100.00  6.8452558E-03
   7100.33  7.0640082E-03
   7100.67  7.2964346E-03
   7101.00  7.5437836E-03
   7101.33  7.8097829E-03
   7101.67  8.0942667E-03
   7102.00  8.3991057E-03
   7102.33  8.7296713E-03
   7102.67  9.0860412E-03
   7103.00  9.4711387E-03
   7103.33  9.8930413E-03
   7103.67  1.0352403E-02
   7104.00  1.0854032E-02
   7104.33  1.1410732E-02
   7104.67  1.2024515E-02
   7105.00  1.2703807E-02
   7105.33  1.3470308E-02
   7105.67  1.4329360E-02
   7106.00  1.5296997E-02
   7106.33  1.6413360E-02
   7106.67  1.7692654E-02
   7107.00  1.9168981E-02
   7107.33  2.0926148E-02
   7107.67  2.3005324E-02
   7108.00  2.5491668E-02
   7108.33  2.8594672E-02
   7108.67  3.2457678E-02
   7109.00  3.7355016E-02
   7109.33  4.3992367E-02
   7109.67  5.3074109E-02
   7110.00  6.5962219E-02
   7110.33  8.6434162E-02
   7110.67  1.1810736E-01
   7111.00  1.6210327E-01
   7111.33  2.1691483E-01
   7111.67  2.8871576E-01
   7112.00  3.8233761E-01
   7112.33  4.9402761E-01
   7112.67  5.9899114E-01
   7113.00  6.4988175E-01
   7113.33  6.0574019E-01
   7113.67  5.2492963E-01
   7114.00  4.4387445E-01
   7114.33  3.7278618E-01
   7114.67  3.1392624E-01
   7115.00  2.6993520E-01
   7115.33  2.4217922E-01
   7115.67  2.2610298E-01
   7116.00  2.1803205E-01
   7116.33  2.1198961E-01
   7116.67  2.0271113E-01
   7117.00  1.8994221E-01
   7117.33  1.7613269E-01
   7117.67  1.6379013E-01
   7118.00  1.5389546E-01
   7118.33  1.4679273E-01
   7118.67  1.4165281E-01
   7119.00  1.3789575E-01
   7119.33  1.3493247E-01
   7119.67  1.3217993E-01
   7120.00  1.2949601E-01
   7120.33  1.2722264E-01
   7120.67  1.2586155E-01
   7121.00  1.2553763E-01
   7121.33  1.2598412E-01
   7121.67  1.2695462E-01
   7122.00  1.2858851E-01
   7122.33  1.3113645E-01
   7122.67  1.3455834E-01
   7123.00  1.3889184E-01
   7123.33  1.4434454E-01
   7123.67  1.5095038E-01
   7124.00  1.5891559E-01
   7124.33  1.6876381E-01
   7124.67  1.8063454E-01
   7125.00  1.9477711E-01
   7125.33  2.1159884E-01
   7125.67  2.3069690E-01
   7126.00  2.5196385E-01
   7126.33  2.7576418E-01
   7126.67  3.0197410E-01
   7127.00  3.3058715E-01
   7127.33  3.6155878E-01
   7127.67  3.9356938E-01
   7128.00  4.2510692E-01
   7128.33  4.5529151E-01
   7128.67  4.8647518E-01
   7129.00  5.2192730E-01
   7129.33  5.6454316E-01
   7129.67  6.1202597E-01
   7130.00  6.6104322E-01
   7130.33  7.0754169E-01
   7130.67  7.5032155E-01
   7131.00  7.9035566E-01
   7131.33  8.3019696E-01
   7131.67  8.7233773E-01
   7132.00  9.1781978E-01
   7132.33  9.6608110E-01
   7132.67  1.0130748E+00
   7133.00  1.0532942E+00
   7133.33  1.0772407E+00
   7133.67  1.0806193E+00
   7134.00  1.0617214E+00
   7134.33  1.0209055E+00
   7134.67  9.6677227E-01
   7135.00  9.0516474E-01
   7135.33  8.4143809E-01
   7135.67  7.7954704E-01
   7136.00  7.2140616E-01
   7136.33  6.6889280E-01
   7136.67  6.2202145E-01
   7137.00  5.8108818E-01
   7137.33  5.4705914E-01
   7137.67  5.1927306E-01
   7138.00  4.9774791E-01
   7138.33  4.8313980E-01
   7138.67  4.7435557E-01
   7139.00  4.7090493E-01
   7139.33  4.7252297E-01
   7139.67  4.7760123E-01
   7140.00  4.8516167E-01
   7140.33  4.9428783E-01
   7140.67  5.0391318E-01
   7141.00  5.1350523E-01
   7141.33  5.2268237E-01
   7141.67  5.3140149E-01
   7142.00  5.3970324E-01
   7142.33  5.4762815E-01
   7142.67  5.5525293E-01
   7143.00  5.6252845E-01
   7143.33  5.6923279E-01
   7143.67  5.7518796E-01
   7144.00  5.8015944E-01
   7144.33  5.8374478E-01
   7144.67  5.8592728E-01
   7145.00  5.8664819E-01
   7145.33  5.8577134E-01
   7145.67  5.8362098E-01
   7146.00  5.8038648E-01
   7146.33  5.7621519E-01
   7146.67  5.7144890E-01
   7147.00  5.6627776E-01
   7147.33  5.6089135E-01
   7147.67  5.5551160E-01
   7148.00  5.5029024E-01
   7148.33  5.4541824E-01
   7148.67  5.4098204E-01
   7149.00  5.3707066E-01
   7149.33  5.3384545E-01
   7149.67  5.3128641E-01
   7150.00  5.2942090E-01
   7150.33  5.2835296E-01
   7150.67  5.2799256E-01
   7151.00  5.2832606E-01
   7151.33  5.2940978E-01
   7151.67  5.3112312E-01
   7152.00  5.3342528E-01
   7152.33  5.3632889E-01
   7152.67  5.3970868E-01
   7153.00  5.4351203E-01
   7153.33  5.4772089E-01
   7153.67  5.5222503E-01
   7154.00  5.5696524E-01
   7154.33  5.6188412E-01
   7154.67  5.6687378E-01
   7155.00  5.7185315E-01
   7155.33  5.7671171E-01
   7155.67  5.8136621E-01
   7156.00  5.8573735E-01
   7156.33  5.8969544E-01
   7156.67  5.9321474E-01
   7157.00  5.9624493E-01
   7157.33  5.9867463E-01
   7157.67  6.0054008E-01
   7158.00  6.0182433E-01
   7158.33  6.0244318E-01
   7158.67  6.0246942E-01
   7159.00  6.0190843E-01
   7159.33  6.0070099E-01
   7159.67  5.9893725E-01
   7160.00  5.9663684E-01
   7160.33  5.9376253E-01
   7160.67  5.9040536E-01
   7161.00  5.8658899E-01
   7161.33  5.8228318E-01
   7161.67  5.7756355E-01
   7162.00  5.7245255E-01
   7162.33  5.6693192E-01
   7162.67  5.6107371E-01
   7163.00  5.5490151E-01
   7163.33  5.4840912E-01
   7163.67  5.4166431E-01
   7164.00  5.3469670E-01
   7164.33  5.2751748E-01
   7164.67  5.2018718E-01
   7165.00  5.1274087E-01
   7165.33  5.0521269E-01
   7165.67  4.9765781E-01
   7166.00  4.9011766E-01
   7166.33  4.8264723E-01
   7166.67  4.7528371E-01
   7167.00  4.6806396E-01
   7167.33  4.6105096E-01
   7167.67  4.5426063E-01
   7168.00  4.4772673E-01
   7168.33  4.4151793E-01
   7168.67  4.3562367E-01
   7169.00  4.3006199E-01
   7169.33  4.2489212E-01
   7169.67  4.2008399E-01
   7170.00  4.1564859E-01
   7170.33  4.1164391E-01
   7170.67  4.0802994E-01
   7171.00  4.0481407E-01
   7171.33  4.0206221E-01
   7171.67  3.9975297E-01
   7172.00  3.9792546E-01
