    FDMNES
    energy     <xanes>
   7097.00  5.0688482E-03
   7097.33  5.1766994E-03
   7097.67  5.2887120E-03
   7098.00  5.4051195E-03
   7098.33  5.5268047E-03
   7098.67  5.6535059E-03
   7099.00  5.7855266E-03
   7099.33  5.9239680E-03
   7099.67  6.0685450E-03
   7100.00  6.2196614E-03
   7100.33  6.3787197E-03
   7100.67  6.5454178E-03
   7101.00  6.7203083E-03
   7101.33  6.9052246E-03
   7101.67  7.0998655E-03
   7102.00  7.3050146E-03
   7102.33  7.5231492E-03
   7102.67  7.7540139E-03
   7103.00  7.9987722E-03
   7103.33  8.2609199E-03
   7103.67  8.5403580E-03
   7104.00  8.8389213E-03
   7104.33  9.1618417E-03
   7104.67  9.5094584E-03
   7105.00  9.8849094E-03
   7105.33  1.0296695E-02
   7105.67  1.0746375E-02
   7106.00  1.1239950E-02
   7106.33  1.1792963E-02
   7106.67  1.2410653E-02
   7107.00  1.3106464E-02
   7107.33  1.3914241E-02
   7107.67  1.4852264E-02
   7108.00  1.5958457E-02
   7108.33  1.7328854E-02
   7108.67  1.9042188E-02
   7109.00  2.1249946E-02
   7109.33  2.4363518E-02
   7109.67  2.8887871E-02
   7110.00  3.5834231E-02
   7110.33  4.8180514E-02
   7110.67  6.8936707E-02
   7111.00  9.5980569E-02
   7111.33  1.0433353E-01
   7111.67  9.1936043E-02
   7112.00  7.9125846E-02
   7112.33  7.3332576E-02
   7112.67  7.1011973E-02
   7113.00  6.9678446E-02
   7113.33  6.9204224E-02
   7113.67  7.0598848E-02
   7114.00  7.4071350E-02
   7114.33  7.9736579E-02
   7114.67  8.8033020E-02
   7115.00  9.9662961E-02
   7115.33  1.1556503E-01
   7115.67  1.3564137E-01
   7116.00  1.6022942E-01
   7116.33  1.9016110E-01
   7116.67  2.2462011E-01
   7117.00  2.6283947E-01
   7117.33  3.0350455E-01
   7117.67  3.4441187E-01
   7118.00  3.8423208E-01
   7118.33  4.2237764E-01
   7118.67  4.6018072E-01
   7119.00  4.9955142E-01
   7119.33  5.4344738E-01
   7119.67  5.9336458E-01
   7120.00  6.4991672E-01
   7120.33  7.1100296E-01
   7120.67  7.6892455E-01
   7121.00  8.1525888E-01
   7121.33  8.3881305E-01
   7121.67  8.3931349E-01
   7122.00  8.2057104E-01
   7122.33  7.8926203E-01
   7122.67  7.5359384E-01
   7123.00  7.1720515E-01
   7123.33  6.8326027E-01
   7123.67  6.5333765E-01
   7124.00  6.2784094E-01
   7124.33  6.0640701E-01
   7124.67  5.8680000E-01
   7125.00  5.6711534E-01
   7125.33  5.4630600E-01
   7125.67  5.2557166E-01
   7126.00  5.0626373E-01
   7126.33  4.9010121E-01
   7126.67  4.7775527E-01
   7127.00  4.6954311E-01
   7127.33  4.6524504E-01
   7127.67  4.6276904E-01
   7128.00  4.6067290E-01
   7128.33  4.5808158E-01
   7128.67  4.5523267E-01
   7129.00  4.5285131E-01
   7129.33  4.5248887E-01
   7129.67  4.5560811E-01
   7130.00  4.6354855E-01
   7130.33  4.7782122E-01
   7130.67  4.9723385E-01
   7131.00  5.1997625E-01
   7131.33  5.4189469E-01
   7131.67  5.5749372E-01
   7132.00  5.6236872E-01
   7132.33  5.5279607E-01
   7132.67  5.3264888E-01
   7133.00  5.0639217E-01
   7133.33  4.7946160E-01
   7133.67  4.5559782E-01
   7134.00  4.3600943E-01
   7134.33  4.2108917E-01
   7134.67  4.0947184E-01
   7135.00  4.0031303E-01
   7135.33  3.9290526E-01
   7135.67  3.8632059E-01
   7136.00  3.8009893E-01
   7136.33  3.7393479E-01
   7136.67  3.6773551E-01
   7137.00  3.6154562E-01
   7137.33  3.5548144E-01
   7137.67  3.4964036E-01
   7138.00  3.4411781E-01
   7138.33  3.3908426E-01
   7138.67  3.3461468E-01
   7139.00  3.3083205E-01
   7139.33  3.2798997E-01
   7139.67  3.2612350E-01
   7140.00  3.2533086E-01
   7140.33  3.2583009E-01
   7140.67  3.2749967E-01
   7141.00  3.3031538E-01
   7141.33  3.3433971E-01
   7141.67  3.3933088E-01
   7142.00  3.4517718E-01
   7142.33  3.5182255E-01
   7142.67  3.5902074E-01
   7143.00  3.6662870E-01
   7143.33  3.7452084E-01
   7143.67  3.8255267E-01
   7144.00  3.9065816E-01
   7144.33  3.9877784E-01
   7144.67  4.0687330E-01
   7145.00  4.1494292E-01
   7145.33  4.2303049E-01
   7145.67  4.3122248E-01
   7146.00  4.3962596E-01
   7146.33  4.4844073E-01
   7146.67  4.5779464E-01
   7147.00  4.6783046E-01
   7147.33  4.7878669E-01
   7147.67  4.9064847E-01
   7148.00  5.0344277E-01
   7148.33  5.1725671E-01
   7148.67  5.3189277E-01
   7149.00  5.4723925E-01
   7149.33  5.6319782E-01
   7149.67  5.7949695E-01
   7150.00  5.9592570E-01
   7150.33  6.1215292E-01
   7150.67  6.2779084E-01
   7151.00  6.4239003E-01
   7151.33  6.5511874E-01
   7151.67  6.6549930E-01
   7152.00  6.7296026E-01
   7152.33  6.7653284E-01
   7152.67  6.7636400E-01
   7153.00  6.7247226E-01
   7153.33  6.6477221E-01
   7153.67  6.5430030E-01
   7154.00  6.4171608E-01
   7154.33  6.2766740E-01
   7154.67  6.1307499E-01
   7155.00  5.9849551E-01
   7155.33  5.8450405E-01
   7155.67  5.7139609E-01
   7156.00  5.5937873E-01
   7156.33  5.4875154E-01
   7156.67  5.3942529E-01
   7157.00  5.3141064E-01
   7157.33  5.2484718E-01
   7157.67  5.1953185E-01
   7158.00  5.1542488E-01
   7158.33  5.1262763E-01
   7158.67  5.1095040E-01
   7159.00  5.1034829E-01
   7159.33  5.1087443E-01
   7159.67  5.1230057E-01
   7160.00  5.1451102E-01
   7160.33  5.1742021E-01
   7160.67  5.2076868E-01
   7161.00  5.2439856E-01
   7161.33  5.2815024E-01
   7161.67  5.3185881E-01
   7162.00  5.3541775E-01
   7162.33  5.3869800E-01
   7162.67  5.4165712E-01
   7163.00  5.4424930E-01
   7163.33  5.4638798E-01
   7163.67  5.4810511E-01
   7164.00  5.4939941E-01
   7164.33  5.5023393E-01
   7164.67  5.5068741E-01
   7165.00  5.5079006E-01
   7165.33  5.5053667E-01
   7165.67  5.4999188E-01
   7166.00  5.4917081E-01
   7166.33  5.4805372E-01
   7166.67  5.4668411E-01
   7167.00  5.4507451E-01
   7167.33  5.4322189E-01
   7167.67  5.4118831E-01
   7168.00  5.3901152E-01
   7168.33  5.3673308E-01
   7168.67  5.3441873E-01
   7169.00  5.3210456E-01
   7169.33  5.2982456E-01
   7169.67  5.2759765E-01
   7170.00  5.2543915E-01
   7170.33  5.2336878E-01
   7170.67  5.2138280E-01
   7171.00  5.1949021E-01
   7171.33  5.1773241E-01
   7171.67  5.1615923E-01
   7172.00  5.1486896E-01
