    FDMNES
    energy     <xanes>
   7097.00  3.9199348E-03
   7097.33  3.9921842E-03
   7097.67  4.0670176E-03
   7098.00  4.1445855E-03
   7098.33  4.2254472E-03
   7098.67  4.3094508E-03
   7099.00  4.3967989E-03
   7099.33  4.4882044E-03
   7099.67  4.5835104E-03
   7100.00  4.6829979E-03
   7100.33  4.7876032E-03
   7100.67  4.8971754E-03
   7101.00  5.0121189E-03
   7101.33  5.1337087E-03
   7101.67  5.2618249E-03
   7102.00  5.3970762E-03
   7102.33  5.5412771E-03
   7102.67  5.6943969E-03
   7103.00  5.8574010E-03
   7103.33  6.0330180E-03
   7103.67  6.2214416E-03
   7104.00  6.4243060E-03
   7104.33  6.6460068E-03
   7104.67  6.8872976E-03
   7105.00  7.1511775E-03
   7105.33  7.4453756E-03
   7105.67  7.7721114E-03
   7106.00  8.1374904E-03
   7106.33  8.5567474E-03
   7106.67  9.0363336E-03
   7107.00  9.5905230E-03
   7107.33  1.0254386E-02
   7107.67  1.1048685E-02
   7108.00  1.2014004E-02
   7108.33  1.3251388E-02
   7108.67  1.4843754E-02
   7109.00  1.6946743E-02
   7109.33  1.9974291E-02
   7109.67  2.4411192E-02
   7110.00  3.1208793E-02
   7110.33  4.3098900E-02
   7110.67  6.2777629E-02
   7111.00  8.9904121E-02
   7111.33  1.1637768E-01
   7111.67  1.3865335E-01
   7112.00  1.5112721E-01
   7112.33  1.3691965E-01
   7112.67  1.0533842E-01
   7113.00  7.6481383E-02
   7113.33  5.8580773E-02
   7113.67  4.8248998E-02
   7114.00  4.3453603E-02
   7114.33  4.1833699E-02
   7114.67  3.8982298E-02
   7115.00  3.4724455E-02
   7115.33  3.1485313E-02
   7115.67  2.9712363E-02
   7116.00  2.9053097E-02
   7116.33  2.9220695E-02
   7116.67  2.9912284E-02
   7117.00  3.1050188E-02
   7117.33  3.2663875E-02
   7117.67  3.4714922E-02
   7118.00  3.7241262E-02
   7118.33  4.0372760E-02
   7118.67  4.4043547E-02
   7119.00  4.8078636E-02
   7119.33  5.2043114E-02
   7119.67  5.5584279E-02
   7120.00  5.8614937E-02
   7120.33  6.1137434E-02
   7120.67  6.3368704E-02
   7121.00  6.5509456E-02
   7121.33  6.7885610E-02
   7121.67  7.0835568E-02
   7122.00  7.4699447E-02
   7122.33  8.0060145E-02
   7122.67  8.7203816E-02
   7123.00  9.6546143E-02
   7123.33  1.0888179E-01
   7123.67  1.2418050E-01
   7124.00  1.4267097E-01
   7124.33  1.6601794E-01
   7124.67  1.9637359E-01
   7125.00  2.3667190E-01
   7125.33  2.9047614E-01
   7125.67  3.5308612E-01
   7126.00  4.1503304E-01
   7126.33  4.6020992E-01
   7126.67  4.8379090E-01
   7127.00  4.8838155E-01
   7127.33  4.8037806E-01
   7127.67  4.7122143E-01
   7128.00  4.6850402E-01
   7128.33  4.7853248E-01
   7128.67  5.0217563E-01
   7129.00  5.4143446E-01
   7129.33  6.0170946E-01
   7129.67  6.8348289E-01
   7130.00  7.8748847E-01
   7130.33  9.1249639E-01
   7130.67  1.0448520E+00
   7131.00  1.1674272E+00
   7131.33  1.2521719E+00
   7131.67  1.2869224E+00
   7132.00  1.2699029E+00
   7132.33  1.2062731E+00
   7132.67  1.1188442E+00
   7133.00  1.0229650E+00
   7133.33  9.3222401E-01
   7133.67  8.5318537E-01
   7134.00  7.8872864E-01
   7134.33  7.4135004E-01
   7134.67  7.0701032E-01
   7135.00  6.8251313E-01
   7135.33  6.6486190E-01
   7135.67  6.5052231E-01
   7136.00  6.3812036E-01
   7136.33  6.2715268E-01
   7136.67  6.1738282E-01
   7137.00  6.0890302E-01
   7137.33  6.0194798E-01
   7137.67  5.9629495E-01
   7138.00  5.9182139E-01
   7138.33  5.8848606E-01
   7138.67  5.8603594E-01
   7139.00  5.8443265E-01
   7139.33  5.8384170E-01
   7139.67  5.8430074E-01
   7140.00  5.8599862E-01
   7140.33  5.8938631E-01
   7140.67  5.9455582E-01
   7141.00  6.0173635E-01
   7141.33  6.1143057E-01
   7141.67  6.2349514E-01
   7142.00  6.3793949E-01
   7142.33  6.5487966E-01
   7142.67  6.7364335E-01
   7143.00  6.9366434E-01
   7143.33  7.1399064E-01
   7143.67  7.3331009E-01
   7144.00  7.5046705E-01
   7144.33  7.6376947E-01
   7144.67  7.7258275E-01
   7145.00  7.7629239E-01
   7145.33  7.7400140E-01
   7145.67  7.6668264E-01
   7146.00  7.5493789E-01
   7146.33  7.3924483E-01
   7146.67  7.2100762E-01
   7147.00  7.0098944E-01
   7147.33  6.7981227E-01
   7147.67  6.5819239E-01
   7148.00  6.3651276E-01
   7148.33  6.1513230E-01
   7148.67  5.9424175E-01
   7149.00  5.7397698E-01
   7149.33  5.5453574E-01
   7149.67  5.3588494E-01
   7150.00  5.1805496E-01
   7150.33  5.0120473E-01
   7150.67  4.8528599E-01
   7151.00  4.7031744E-01
   7151.33  4.5641800E-01
   7151.67  4.4345910E-01
   7152.00  4.3142417E-01
   7152.33  4.2037598E-01
   7152.67  4.1012664E-01
   7153.00  4.0060013E-01
   7153.33  3.9178278E-01
   7153.67  3.8349717E-01
   7154.00  3.7565581E-01
   7154.33  3.6820219E-01
   7154.67  3.6100686E-01
   7155.00  3.5401566E-01
   7155.33  3.4721938E-01
   7155.67  3.4060849E-01
   7156.00  3.3423027E-01
   7156.33  3.2821801E-01
   7156.67  3.2265121E-01
   7157.00  3.1763978E-01
   7157.33  3.1337783E-01
   7157.67  3.0984531E-01
   7158.00  3.0703704E-01
   7158.33  3.0494253E-01
   7158.67  3.0331150E-01
   7159.00  3.0196079E-01
   7159.33  3.0070055E-01
   7159.67  2.9939798E-01
   7160.00  2.9804457E-01
   7160.33  2.9675942E-01
   7160.67  2.9575070E-01
   7161.00  2.9524527E-01
   7161.33  2.9559232E-01
   7161.67  2.9690400E-01
   7162.00  2.9929557E-01
   7162.33  3.0295991E-01
   7162.67  3.0772131E-01
   7163.00  3.1349073E-01
   7163.33  3.2021922E-01
   7163.67  3.2760794E-01
   7164.00  3.3547488E-01
   7164.33  3.4363533E-01
   7164.67  3.5185724E-01
   7165.00  3.5999361E-01
   7165.33  3.6787499E-01
   7165.67  3.7542286E-01
   7166.00  3.8257286E-01
   7166.33  3.8922368E-01
   7166.67  3.9541049E-01
   7167.00  4.0113146E-01
   7167.33  4.0634174E-01
   7167.67  4.1112128E-01
   7168.00  4.1549627E-01
   7168.33  4.1945603E-01
   7168.67  4.2308535E-01
   7169.00  4.2641829E-01
   7169.33  4.2946169E-01
   7169.67  4.3228316E-01
   7170.00  4.3490836E-01
   7170.33  4.3733937E-01
   7170.67  4.3961311E-01
   7171.00  4.4173335E-01
   7171.33  4.4366439E-01
   7171.67  4.4537438E-01
   7172.00  4.4677950E-01
