    FDMNES
    energy     <xanes>
   7097.00  4.5648825E-03
   7097.33  4.6661601E-03
   7097.67  4.7716673E-03
   7098.00  4.8816722E-03
   7098.33  4.9971234E-03
   7098.67  5.1177976E-03
   7099.00  5.2440563E-03
   7099.33  5.3771238E-03
   7099.67  5.5167683E-03
   7100.00  5.6634916E-03
   7100.33  5.8189169E-03
   7100.67  5.9828219E-03
   7101.00  6.1559272E-03
   7101.33  6.3404561E-03
   7101.67  6.5362374E-03
   7102.00  6.7443484E-03
   7102.33  6.9679603E-03
   7102.67  7.2070470E-03
   7103.00  7.4633025E-03
   7103.33  7.7414835E-03
   7103.67  8.0419309E-03
   7104.00  8.3674784E-03
   7104.33  8.7257365E-03
   7104.67  9.1179626E-03
   7105.00  9.5492890E-03
   7105.33  1.0032961E-02
   7105.67  1.0572641E-02
   7106.00  1.1178648E-02
   7106.33  1.1876798E-02
   7106.67  1.2677740E-02
   7107.00  1.3605407E-02
   7107.33  1.4718773E-02
   7107.67  1.6052447E-02
   7108.00  1.7674642E-02
   7108.33  1.9755946E-02
   7108.67  2.2437865E-02
   7109.00  2.5987792E-02
   7109.33  3.1123759E-02
   7109.67  3.8709737E-02
   7110.00  5.0456356E-02
   7110.33  7.1300168E-02
   7110.67  1.0577760E-01
   7111.00  1.5054121E-01
   7111.33  1.7955828E-01
   7111.67  1.8817089E-01
   7112.00  1.8848479E-01
   7112.33  1.8334584E-01
   7112.67  1.7006796E-01
   7113.00  1.5280006E-01
   7113.33  1.3900785E-01
   7113.67  1.3093546E-01
   7114.00  1.2843705E-01
   7114.33  1.2964829E-01
   7114.67  1.3124188E-01
   7115.00  1.3118712E-01
   7115.33  1.2729557E-01
   7115.67  1.2194949E-01
   7116.00  1.1940127E-01
   7116.33  1.2408360E-01
   7116.67  1.3635430E-01
   7117.00  1.5523870E-01
   7117.33  1.7602520E-01
   7117.67  1.9073665E-01
   7118.00  1.9641905E-01
   7118.33  1.9726615E-01
   7118.67  2.0133969E-01
   7119.00  2.1246198E-01
   7119.33  2.3131856E-01
   7119.67  2.5166777E-01
   7120.00  2.6588497E-01
   7120.33  2.7034493E-01
   7120.67  2.7286831E-01
   7121.00  2.7842460E-01
   7121.33  2.8872976E-01
   7121.67  3.0211822E-01
   7122.00  3.1730646E-01
   7122.33  3.3311067E-01
   7122.67  3.4857124E-01
   7123.00  3.6379133E-01
   7123.33  3.8086381E-01
   7123.67  4.0154528E-01
   7124.00  4.2568720E-01
   7124.33  4.5146493E-01
   7124.67  4.7693177E-01
   7125.00  5.0236127E-01
   7125.33  5.3016893E-01
   7125.67  5.6167937E-01
   7126.00  5.9602334E-01
   7126.33  6.2962256E-01
   7126.67  6.5823084E-01
   7127.00  6.7868767E-01
   7127.33  6.8774065E-01
   7127.67  6.8738928E-01
   7128.00  6.8025769E-01
   7128.33  6.6973400E-01
   7128.67  6.5907611E-01
   7129.00  6.4943807E-01
   7129.33  6.4058705E-01
   7129.67  6.3085035E-01
   7130.00  6.1875259E-01
   7130.33  6.0301228E-01
   7130.67  5.8436978E-01
   7131.00  5.6409960E-01
   7131.33  5.4478140E-01
   7131.67  5.2899619E-01
   7132.00  5.1840315E-01
   7132.33  5.1463181E-01
   7132.67  5.1702399E-01
   7133.00  5.2538998E-01
   7133.33  5.3971268E-01
   7133.67  5.5742602E-01
   7134.00  5.7562100E-01
   7134.33  5.8996607E-01
   7134.67  5.9825921E-01
   7135.00  6.0017486E-01
   7135.33  5.9658033E-01
   7135.67  5.9026857E-01
   7136.00  5.8284486E-01
   7136.33  5.7563435E-01
   7136.67  5.6950300E-01
   7137.00  5.6508151E-01
   7137.33  5.6333216E-01
   7137.67  5.6447088E-01
   7138.00  5.6869558E-01
   7138.33  5.7617105E-01
   7138.67  5.8581923E-01
   7139.00  5.9671976E-01
   7139.33  6.0769188E-01
   7139.67  6.1761054E-01
   7140.00  6.2566598E-01
   7140.33  6.3078836E-01
   7140.67  6.3279202E-01
   7141.00  6.3147442E-01
   7141.33  6.2656671E-01
   7141.67  6.1901824E-01
   7142.00  6.0955449E-01
   7142.33  5.9899062E-01
   7142.67  5.8828118E-01
   7143.00  5.7796467E-01
   7143.33  5.6855571E-01
   7143.67  5.6018493E-01
   7144.00  5.5296351E-01
   7144.33  5.4712432E-01
   7144.67  5.4254462E-01
   7145.00  5.3920650E-01
   7145.33  5.3717018E-01
   7145.67  5.3612482E-01
   7146.00  5.3585551E-01
   7146.33  5.3608917E-01
   7146.67  5.3639929E-01
   7147.00  5.3649201E-01
   7147.33  5.3602438E-01
   7147.67  5.3485183E-01
   7148.00  5.3286907E-01
   7148.33  5.2994053E-01
   7148.67  5.2622459E-01
   7149.00  5.2181588E-01
   7149.33  5.1679351E-01
   7149.67  5.1139554E-01
   7150.00  5.0577340E-01
   7150.33  5.0009083E-01
   7150.67  4.9450954E-01
   7151.00  4.8914488E-01
   7151.33  4.8414528E-01
   7151.67  4.7954557E-01
   7152.00  4.7538419E-01
   7152.33  4.7173523E-01
   7152.67  4.6853582E-01
   7153.00  4.6576877E-01
   7153.33  4.6345600E-01
   7153.67  4.6151140E-01
   7154.00  4.5989805E-01
   7154.33  4.5859672E-01
   7154.67  4.5750185E-01
   7155.00  4.5653355E-01
   7155.33  4.5557515E-01
   7155.67  4.5448268E-01
   7156.00  4.5311499E-01
   7156.33  4.5123620E-01
   7156.67  4.4872647E-01
   7157.00  4.4545622E-01
   7157.33  4.4121842E-01
   7157.67  4.3609884E-01
   7158.00  4.3015057E-01
   7158.33  4.2342683E-01
   7158.67  4.1620931E-01
   7159.00  4.0868514E-01
   7159.33  4.0105794E-01
   7159.67  3.9353132E-01
   7160.00  3.8624172E-01
   7160.33  3.7935754E-01
   7160.67  3.7292772E-01
   7161.00  3.6701159E-01
   7161.33  3.6172335E-01
   7161.67  3.5701619E-01
   7162.00  3.5289240E-01
   7162.33  3.4940448E-01
   7162.67  3.4644690E-01
   7163.00  3.4398142E-01
   7163.33  3.4201319E-01
   7163.67  3.4043389E-01
   7164.00  3.3920017E-01
   7164.33  3.3830709E-01
   7164.67  3.3768351E-01
   7165.00  3.3730727E-01
   7165.33  3.3718673E-01
   7165.67  3.3727947E-01
   7166.00  3.3757839E-01
   7166.33  3.3810637E-01
   7166.67  3.3884078E-01
   7167.00  3.3978693E-01
   7167.33  3.4097991E-01
   7167.67  3.4239895E-01
   7168.00  3.4404674E-01
   7168.33  3.4594933E-01
   7168.67  3.4806917E-01
   7169.00  3.5039292E-01
   7169.33  3.5292349E-01
   7169.67  3.5561430E-01
   7170.00  3.5844286E-01
   7170.33  3.6139318E-01
   7170.67  3.6441438E-01
   7171.00  3.6746051E-01
   7171.33  3.7043302E-01
   7171.67  3.7316961E-01
   7172.00  3.7543998E-01
