    FDMNES
    energy     <xanes>
   7097.00  4.4329100E-03
   7097.33  4.5231142E-03
   7097.67  4.6168949E-03
   7098.00  4.7144781E-03
   7098.33  4.8166663E-03
   7098.67  4.9232721E-03
   7099.00  5.0346039E-03
   7099.33  5.1517038E-03
   7099.67  5.2743832E-03
   7100.00  5.4030771E-03
   7100.33  5.5391816E-03
   7100.67  5.6825278E-03
   7101.00  5.8337536E-03
   7101.33  5.9948023E-03
   7101.67  6.1655719E-03
   7102.00  6.3470427E-03
   7102.33  6.5420500E-03
   7102.67  6.7506674E-03
   7103.00  6.9744884E-03
   7103.33  7.2179006E-03
   7103.67  7.4814114E-03
   7104.00  7.7677984E-03
   7104.33  8.0843733E-03
   7104.67  8.4327361E-03
   7105.00  8.8181724E-03
   7105.33  9.2540832E-03
   7105.67  9.7450101E-03
   7106.00  1.0302225E-02
   7106.33  1.0953579E-02
   7106.67  1.1712512E-02
   7107.00  1.2607061E-02
   7107.33  1.3706050E-02
   7107.67  1.5055175E-02
   7108.00  1.6741352E-02
   7108.33  1.8983634E-02
   7108.67  2.1982649E-02
   7109.00  2.6115575E-02
   7109.33  3.2417146E-02
   7109.67  4.2231968E-02
   7110.00  5.8247646E-02
   7110.33  8.8191352E-02
   7110.67  1.3739812E-01
   7111.00  1.9075992E-01
   7111.33  1.9280292E-01
   7111.67  1.6468094E-01
   7112.00  1.4042899E-01
   7112.33  1.2372057E-01
   7112.67  1.0674828E-01
   7113.00  9.1501168E-02
   7113.33  7.9909211E-02
   7113.67  6.8856220E-02
   7114.00  5.8265207E-02
   7114.33  4.9757020E-02
   7114.67  4.2922752E-02
   7115.00  3.7851832E-02
   7115.33  3.5009052E-02
   7115.67  3.3686982E-02
   7116.00  3.3483966E-02
   7116.33  3.4184667E-02
   7116.67  3.5415069E-02
   7117.00  3.6912212E-02
   7117.33  3.8465561E-02
   7117.67  4.0121274E-02
   7118.00  4.2087478E-02
   7118.33  4.4709895E-02
   7118.67  4.8173858E-02
   7119.00  5.2722260E-02
   7119.33  5.8922197E-02
   7119.67  6.7168371E-02
   7120.00  7.8177944E-02
   7120.33  9.3562085E-02
   7120.67  1.1421211E-01
   7121.00  1.4162495E-01
   7121.33  1.7949411E-01
   7121.67  2.2841621E-01
   7122.00  2.8554684E-01
   7122.33  3.3888738E-01
   7122.67  3.7577776E-01
   7123.00  3.9472735E-01
   7123.33  4.0388415E-01
   7123.67  4.1400964E-01
   7124.00  4.2952629E-01
   7124.33  4.5325097E-01
   7124.67  4.8485536E-01
   7125.00  5.2480142E-01
   7125.33  5.7442317E-01
   7125.67  6.2980850E-01
   7126.00  6.8262849E-01
   7126.33  7.1646819E-01
   7126.67  7.2870206E-01
   7127.00  7.2654009E-01
   7127.33  7.1759465E-01
   7127.67  7.0721859E-01
   7128.00  6.9950407E-01
   7128.33  7.0088192E-01
   7128.67  7.1442508E-01
   7129.00  7.4073065E-01
   7129.33  7.7755621E-01
   7129.67  8.2040903E-01
   7130.00  8.7063697E-01
   7130.33  9.3143130E-01
   7130.67  9.9459798E-01
   7131.00  1.0463670E+00
   7131.33  1.0671028E+00
   7131.67  1.0523253E+00
   7132.00  1.0046894E+00
   7132.33  9.3316289E-01
   7132.67  8.5478703E-01
   7133.00  7.8006207E-01
   7133.33  7.1845604E-01
   7133.67  6.7157159E-01
   7134.00  6.3893224E-01
   7134.33  6.1951848E-01
   7134.67  6.0836560E-01
   7135.00  6.0222395E-01
   7135.33  5.9838539E-01
   7135.67  5.9558802E-01
   7136.00  5.9384218E-01
   7136.33  5.9267152E-01
   7136.67  5.9118312E-01
   7137.00  5.8904997E-01
   7137.33  5.8629227E-01
   7137.67  5.8326917E-01
   7138.00  5.8020293E-01
   7138.33  5.7725196E-01
   7138.67  5.7443871E-01
   7139.00  5.7174504E-01
   7139.33  5.6916121E-01
   7139.67  5.6668924E-01
   7140.00  5.6436061E-01
   7140.33  5.6223083E-01
   7140.67  5.6029255E-01
   7141.00  5.5853093E-01
   7141.33  5.5690643E-01
   7141.67  5.5532053E-01
   7142.00  5.5369878E-01
   7142.33  5.5196554E-01
   7142.67  5.5011342E-01
   7143.00  5.4816096E-01
   7143.33  5.4614856E-01
   7143.67  5.4413333E-01
   7144.00  5.4214367E-01
   7144.33  5.4018299E-01
   7144.67  5.3820210E-01
   7145.00  5.3611978E-01
   7145.33  5.3376406E-01
   7145.67  5.3098445E-01
   7146.00  5.2761687E-01
   7146.33  5.2340390E-01
   7146.67  5.1831346E-01
   7147.00  5.1226627E-01
   7147.33  5.0509110E-01
   7147.67  4.9692963E-01
   7148.00  4.8784701E-01
   7148.33  4.7787233E-01
   7148.67  4.6727697E-01
   7149.00  4.5622773E-01
   7149.33  4.4489154E-01
   7149.67  4.3348623E-01
   7150.00  4.2215192E-01
   7150.33  4.1105172E-01
   7150.67  4.0026782E-01
   7151.00  3.8987094E-01
   7151.33  3.7997557E-01
   7151.67  3.7056523E-01
   7152.00  3.6166376E-01
   7152.33  3.5336299E-01
   7152.67  3.4562294E-01
   7153.00  3.3846501E-01
   7153.33  3.3198739E-01
   7153.67  3.2613423E-01
   7154.00  3.2092761E-01
   7154.33  3.1648549E-01
   7154.67  3.1275177E-01
   7155.00  3.0974711E-01
   7155.33  3.0758344E-01
   7155.67  3.0617193E-01
   7156.00  3.0549955E-01
   7156.33  3.0561072E-01
   7156.67  3.0634219E-01
   7157.00  3.0760179E-01
   7157.33  3.0930182E-01
   7157.67  3.1123224E-01
   7158.00  3.1324449E-01
   7158.33  3.1515746E-01
   7158.67  3.1683270E-01
   7159.00  3.1817152E-01
   7159.33  3.1905488E-01
   7159.67  3.1952260E-01
   7160.00  3.1961225E-01
   7160.33  3.1938111E-01
   7160.67  3.1900114E-01
   7161.00  3.1861292E-01
   7161.33  3.1840837E-01
   7161.67  3.1853177E-01
   7162.00  3.1911080E-01
   7162.33  3.2034295E-01
   7162.67  3.2224756E-01
   7163.00  3.2487587E-01
   7163.33  3.2834834E-01
   7163.67  3.3254473E-01
   7164.00  3.3741677E-01
   7164.33  3.4297216E-01
   7164.67  3.4904165E-01
   7165.00  3.5552695E-01
   7165.33  3.6233984E-01
   7165.67  3.6932089E-01
   7166.00  3.7637406E-01
   7166.33  3.8339790E-01
   7166.67  3.9031836E-01
   7167.00  3.9709519E-01
   7167.33  4.0368489E-01
   7167.67  4.1010385E-01
   7168.00  4.1635901E-01
   7168.33  4.2244885E-01
   7168.67  4.2841535E-01
   7169.00  4.3428194E-01
   7169.33  4.4006794E-01
   7169.67  4.4580752E-01
   7170.00  4.5151594E-01
   7170.33  4.5719434E-01
   7170.67  4.6282616E-01
   7171.00  4.6836128E-01
   7171.33  4.7364405E-01
   7171.67  4.7844564E-01
   7172.00  4.8242054E-01
