    FDMNES
    energy     <xanes>
   7097.00  5.1341690E-03
   7097.33  5.2533690E-03
   7097.67  5.3778777E-03
   7098.00  5.5080487E-03
   7098.33  5.6451012E-03
   7098.67  5.7887766E-03
   7099.00  5.9395551E-03
   7099.33  6.0990251E-03
   7099.67  6.2669201E-03
   7100.00  6.4439103E-03
   7100.33  6.6321192E-03
   7100.67  6.8312963E-03
   7101.00  7.0424059E-03
   7101.33  7.2683762E-03
   7101.67  7.5090253E-03
   7102.00  7.7657939E-03
   7102.33  8.0428731E-03
   7102.67  8.3402671E-03
   7103.00  8.6602272E-03
   7103.33  9.0090332E-03
   7103.67  9.3871433E-03
   7104.00  9.7982766E-03
   7104.33  1.0252396E-02
   7104.67  1.0751059E-02
   7105.00  1.1300852E-02
   7105.33  1.1918788E-02
   7105.67  1.2609193E-02
   7106.00  1.3384847E-02
   7106.33  1.4277774E-02
   7106.67  1.5299930E-02
   7107.00  1.6479367E-02
   7107.33  1.7885109E-02
   7107.67  1.9553414E-02
   7108.00  2.1557816E-02
   7108.33  2.4080152E-02
   7108.67  2.7254298E-02
   7109.00  3.1334251E-02
   7109.33  3.6981694E-02
   7109.67  4.4902463E-02
   7110.00  5.6468987E-02
   7110.33  7.5598834E-02
   7110.67  1.0676349E-01
   7111.00  1.5356838E-01
   7111.33  2.1237149E-01
   7111.67  2.6255843E-01
   7112.00  2.9341044E-01
   7112.33  3.1826452E-01
   7112.67  3.3555259E-01
   7113.00  3.3640929E-01
   7113.33  3.2268254E-01
   7113.67  3.0431428E-01
   7114.00  2.8354126E-01
   7114.33  2.5269548E-01
   7114.67  2.1580942E-01
   7115.00  1.8523218E-01
   7115.33  1.7113509E-01
   7115.67  1.7093411E-01
   7116.00  1.7968359E-01
   7116.33  1.8742055E-01
   7116.67  1.8678459E-01
   7117.00  1.7916188E-01
   7117.33  1.7142489E-01
   7117.67  1.6875600E-01
   7118.00  1.7193149E-01
   7118.33  1.7984919E-01
   7118.67  1.9332566E-01
   7119.00  2.1567362E-01
   7119.33  2.4589097E-01
   7119.67  2.7375731E-01
   7120.00  2.9051840E-01
   7120.33  2.9181539E-01
   7120.67  2.8409709E-01
   7121.00  2.7224549E-01
   7121.33  2.5968843E-01
   7121.67  2.4751814E-01
   7122.00  2.3582686E-01
   7122.33  2.2608278E-01
   7122.67  2.2035588E-01
   7123.00  2.2002774E-01
   7123.33  2.2598888E-01
   7123.67  2.3646305E-01
   7124.00  2.5046507E-01
   7124.33  2.6930912E-01
   7124.67  2.9492246E-01
   7125.00  3.2861154E-01
   7125.33  3.7063357E-01
   7125.67  4.1705277E-01
   7126.00  4.6383276E-01
   7126.33  5.0581665E-01
   7126.67  5.4160854E-01
   7127.00  5.7220097E-01
   7127.33  5.9861898E-01
   7127.67  6.2152670E-01
   7128.00  6.4098674E-01
   7128.33  6.5765529E-01
   7128.67  6.7331962E-01
   7129.00  6.8882055E-01
   7129.33  7.0373002E-01
   7129.67  7.1621785E-01
   7130.00  7.2404545E-01
   7130.33  7.2479697E-01
   7130.67  7.2132297E-01
   7131.00  7.1873953E-01
   7131.33  7.2328494E-01
   7131.67  7.3525265E-01
   7132.00  7.5263115E-01
   7132.33  7.7241066E-01
   7132.67  7.9154318E-01
   7133.00  8.0797763E-01
   7133.33  8.1852010E-01
   7133.67  8.2150605E-01
   7134.00  8.1599492E-01
   7134.33  8.0188753E-01
   7134.67  7.8281131E-01
   7135.00  7.6169149E-01
   7135.33  7.4169183E-01
   7135.67  7.2448714E-01
   7136.00  7.1034298E-01
   7136.33  6.9882701E-01
   7136.67  6.8871597E-01
   7137.00  6.7942296E-01
   7137.33  6.7049477E-01
   7137.67  6.6148415E-01
   7138.00  6.5210049E-01
   7138.33  6.4203352E-01
   7138.67  6.3125462E-01
   7139.00  6.1976315E-01
   7139.33  6.0755593E-01
   7139.67  5.9484541E-01
   7140.00  5.8177646E-01
   7140.33  5.6852827E-01
   7140.67  5.5535158E-01
   7141.00  5.4246477E-01
   7141.33  5.3019747E-01
   7141.67  5.1872255E-01
   7142.00  5.0820923E-01
   7142.33  4.9892068E-01
   7142.67  4.9075685E-01
   7143.00  4.8367400E-01
   7143.33  4.7766513E-01
   7143.67  4.7242831E-01
   7144.00  4.6778456E-01
   7144.33  4.6357163E-01
   7144.67  4.5955014E-01
   7145.00  4.5558213E-01
   7145.33  4.5153975E-01
   7145.67  4.4736656E-01
   7146.00  4.4304948E-01
   7146.33  4.3860007E-01
   7146.67  4.3410189E-01
   7147.00  4.2964366E-01
   7147.33  4.2537041E-01
   7147.67  4.2138877E-01
   7148.00  4.1779393E-01
   7148.33  4.1472403E-01
   7148.67  4.1215980E-01
   7149.00  4.1010257E-01
   7149.33  4.0858024E-01
   7149.67  4.0747371E-01
   7150.00  4.0671732E-01
   7150.33  4.0626127E-01
   7150.67  4.0599005E-01
   7151.00  4.0583545E-01
   7151.33  4.0572363E-01
   7151.67  4.0557903E-01
   7152.00  4.0534656E-01
   7152.33  4.0494621E-01
   7152.67  4.0434136E-01
   7153.00  4.0349377E-01
   7153.33  4.0234659E-01
   7153.67  4.0093927E-01
   7154.00  3.9929690E-01
   7154.33  3.9743500E-01
   7154.67  3.9541870E-01
   7155.00  3.9328238E-01
   7155.33  3.9105102E-01
   7155.67  3.8876313E-01
   7156.00  3.8643676E-01
   7156.33  3.8408600E-01
   7156.67  3.8173014E-01
   7157.00  3.7938673E-01
   7157.33  3.7708905E-01
   7157.67  3.7487028E-01
   7158.00  3.7277180E-01
   7158.33  3.7087312E-01
   7158.67  3.6921602E-01
   7159.00  3.6785811E-01
   7159.33  3.6691158E-01
   7159.67  3.6639186E-01
   7160.00  3.6634394E-01
   7160.33  3.6687368E-01
   7160.67  3.6794620E-01
   7161.00  3.6957762E-01
   7161.33  3.7184565E-01
   7161.67  3.7466778E-01
   7162.00  3.7801722E-01
   7162.33  3.8190302E-01
   7162.67  3.8620309E-01
   7163.00  3.9085960E-01
   7163.33  3.9583901E-01
   7163.67  4.0103831E-01
   7164.00  4.0640516E-01
   7164.33  4.1190264E-01
   7164.67  4.1747673E-01
   7165.00  4.2310302E-01
   7165.33  4.2876671E-01
   7165.67  4.3445069E-01
   7166.00  4.4014444E-01
   7166.33  4.4583150E-01
   7166.67  4.5148924E-01
   7167.00  4.5708923E-01
   7167.33  4.6257502E-01
   7167.67  4.6790449E-01
   7168.00  4.7302376E-01
   7168.33  4.7783162E-01
   7168.67  4.8229740E-01
   7169.00  4.8637114E-01
   7169.33  4.8995345E-01
   7169.67  4.9307341E-01
   7170.00  4.9572611E-01
   7170.33  4.9786890E-01
   7170.67  4.9959132E-01
   7171.00  5.0093327E-01
   7171.33  5.0191039E-01
   7171.67  5.0262988E-01
   7172.00  5.0316001E-01
