    FDMNES
    energy     <xanes>
   7097.00  5.0640883E-03
   7097.33  5.1827050E-03
   7097.67  5.3066648E-03
   7098.00  5.4363280E-03
   7098.33  5.5729288E-03
   7098.67  5.7162127E-03
   7099.00  5.8666701E-03
   7099.33  6.0259142E-03
   7099.67  6.1936848E-03
   7100.00  6.3706686E-03
   7100.33  6.5590298E-03
   7100.67  6.7585280E-03
   7101.00  6.9701554E-03
   7101.33  7.1969089E-03
   7101.67  7.4386241E-03
   7102.00  7.6967905E-03
   7102.33  7.9757182E-03
   7102.67  8.2754461E-03
   7103.00  8.5983149E-03
   7103.33  8.9508210E-03
   7103.67  9.3334973E-03
   7104.00  9.7502379E-03
   7104.33  1.0211428E-02
   7104.67  1.0718801E-02
   7105.00  1.1279320E-02
   7105.33  1.1910902E-02
   7105.67  1.2618337E-02
   7106.00  1.3415321E-02
   7106.33  1.4336080E-02
   7106.67  1.5393986E-02
   7107.00  1.6619722E-02
   7107.33  1.8088753E-02
   7107.67  1.9842584E-02
   7108.00  2.1964295E-02
   7108.33  2.4660183E-02
   7108.67  2.8090018E-02
   7109.00  3.2556312E-02
   7109.33  3.8857665E-02
   7109.67  4.7894367E-02
   7110.00  6.1432704E-02
   7110.33  8.4554598E-02
   7110.67  1.2264329E-01
   7111.00  1.7684330E-01
   7111.33  2.3139459E-01
   7111.67  2.7120378E-01
   7112.00  2.8766414E-01
   7112.33  2.8230702E-01
   7112.67  2.6619264E-01
   7113.00  2.5445253E-01
   7113.33  2.6123196E-01
   7113.67  2.7855776E-01
   7114.00  3.0481546E-01
   7114.33  3.3598662E-01
   7114.67  3.6298677E-01
   7115.00  3.7817997E-01
   7115.33  3.3461579E-01
   7115.67  2.5228943E-01
   7116.00  1.8268413E-01
   7116.33  1.4273433E-01
   7116.67  1.2023482E-01
   7117.00  1.0888806E-01
   7117.33  1.0558937E-01
   7117.67  1.0749667E-01
   7118.00  1.1348395E-01
   7118.33  1.2214341E-01
   7118.67  1.3225608E-01
   7119.00  1.4506372E-01
   7119.33  1.6283130E-01
   7119.67  1.8561735E-01
   7120.00  2.1286209E-01
   7120.33  2.4223128E-01
   7120.67  2.6888711E-01
   7121.00  2.8876899E-01
   7121.33  2.9861878E-01
   7121.67  3.0103797E-01
   7122.00  2.9891973E-01
   7122.33  2.9532396E-01
   7122.67  2.9259611E-01
   7123.00  2.9177592E-01
   7123.33  2.9351741E-01
   7123.67  2.9715525E-01
   7124.00  3.0221915E-01
   7124.33  3.0890084E-01
   7124.67  3.1816262E-01
   7125.00  3.3176513E-01
   7125.33  3.5137926E-01
   7125.67  3.7490466E-01
   7126.00  4.0006027E-01
   7126.33  4.2498496E-01
   7126.67  4.4941674E-01
   7127.00  4.7342277E-01
   7127.33  4.9629596E-01
   7127.67  5.1752255E-01
   7128.00  5.3731999E-01
   7128.33  5.5656354E-01
   7128.67  5.7573385E-01
   7129.00  5.9405817E-01
   7129.33  6.0916385E-01
   7129.67  6.1936168E-01
   7130.00  6.2414262E-01
   7130.33  6.2490595E-01
   7130.67  6.2577090E-01
   7131.00  6.2985947E-01
   7131.33  6.4045450E-01
   7131.67  6.5718344E-01
   7132.00  6.7799404E-01
   7132.33  6.9927899E-01
   7132.67  7.1756497E-01
   7133.00  7.3036615E-01
   7133.33  7.3466180E-01
   7133.67  7.3118257E-01
   7134.00  7.2164197E-01
   7134.33  7.0894728E-01
   7134.67  6.9641258E-01
   7135.00  6.8558803E-01
   7135.33  6.7745537E-01
   7135.67  6.7160369E-01
   7136.00  6.6759917E-01
   7136.33  6.6495437E-01
   7136.67  6.6292593E-01
   7137.00  6.6112668E-01
   7137.33  6.5925977E-01
   7137.67  6.5719009E-01
   7138.00  6.5488183E-01
   7138.33  6.5233960E-01
   7138.67  6.4966827E-01
   7139.00  6.4694739E-01
   7139.33  6.4425563E-01
   7139.67  6.4162375E-01
   7140.00  6.3904030E-01
   7140.33  6.3644649E-01
   7140.67  6.3374766E-01
   7141.00  6.3083879E-01
   7141.33  6.2753489E-01
   7141.67  6.2373130E-01
   7142.00  6.1930788E-01
   7142.33  6.1405619E-01
   7142.67  6.0799932E-01
   7143.00  6.0113249E-01
   7143.33  5.9343105E-01
   7143.67  5.8513071E-01
   7144.00  5.7638704E-01
   7144.33  5.6734980E-01
   7144.67  5.5823732E-01
   7145.00  5.4921158E-01
   7145.33  5.4048328E-01
   7145.67  5.3217169E-01
   7146.00  5.2437998E-01
   7146.33  5.1726649E-01
   7146.67  5.1079917E-01
   7147.00  5.0498751E-01
   7147.33  4.9989856E-01
   7147.67  4.9542454E-01
   7148.00  4.9154062E-01
   7148.33  4.8829620E-01
   7148.67  4.8560544E-01
   7149.00  4.8345387E-01
   7149.33  4.8187801E-01
   7149.67  4.8075296E-01
   7150.00  4.7998461E-01
   7150.33  4.7944995E-01
   7150.67  4.7897108E-01
   7151.00  4.7844120E-01
   7151.33  4.7775122E-01
   7151.67  4.7685495E-01
   7152.00  4.7571109E-01
   7152.33  4.7423822E-01
   7152.67  4.7242413E-01
   7153.00  4.7022483E-01
   7153.33  4.6754074E-01
   7153.67  4.6440033E-01
   7154.00  4.6080568E-01
   7154.33  4.5673524E-01
   7154.67  4.5230631E-01
   7155.00  4.4759540E-01
   7155.33  4.4268003E-01
   7155.67  4.3768520E-01
   7156.00  4.3269123E-01
   7156.33  4.2778370E-01
   7156.67  4.2300701E-01
   7157.00  4.1839081E-01
   7157.33  4.1397625E-01
   7157.67  4.0974812E-01
   7158.00  4.0570837E-01
   7158.33  4.0188308E-01
   7158.67  3.9825559E-01
   7159.00  3.9483893E-01
   7159.33  3.9168663E-01
   7159.67  3.8880320E-01
   7160.00  3.8622420E-01
   7160.33  3.8403744E-01
   7160.67  3.8224117E-01
   7161.00  3.8086730E-01
   7161.33  3.8000604E-01
   7161.67  3.7962577E-01
   7162.00  3.7973674E-01
   7162.33  3.8039821E-01
   7162.67  3.8153673E-01
   7163.00  3.8313834E-01
   7163.33  3.8523671E-01
   7163.67  3.8775188E-01
   7164.00  3.9066118E-01
   7164.33  3.9398191E-01
   7164.67  3.9763756E-01
   7165.00  4.0159947E-01
   7165.33  4.0586567E-01
   7165.67  4.1036323E-01
   7166.00  4.1505486E-01
   7166.33  4.1991010E-01
   7166.67  4.2485519E-01
   7167.00  4.2983608E-01
   7167.33  4.3477775E-01
   7167.67  4.3960742E-01
   7168.00  4.4425677E-01
   7168.33  4.4861551E-01
   7168.67  4.5264351E-01
   7169.00  4.5628679E-01
   7169.33  4.5944308E-01
   7169.67  4.6213792E-01
   7170.00  4.6436424E-01
   7170.33  4.6607746E-01
   7170.67  4.6736774E-01
   7171.00  4.6827790E-01
   7171.33  4.6883491E-01
   7171.67  4.6916643E-01
   7172.00  4.6936881E-01
