    FDMNES
    energy     <xanes>
   7097.00  4.3369772E-03
   7097.33  4.4274467E-03
   7097.67  4.5216864E-03
   7098.00  4.6199482E-03
   7098.33  4.7231015E-03
   7098.67  4.8309673E-03
   7099.00  4.9438940E-03
   7099.33  5.0630259E-03
   7099.67  5.1881885E-03
   7100.00  5.3198791E-03
   7100.33  5.4596528E-03
   7100.67  5.6073655E-03
   7101.00  5.7637548E-03
   7101.33  5.9310171E-03
   7101.67  6.1090965E-03
   7102.00  6.2991378E-03
   7102.33  6.5043914E-03
   7102.67  6.7250209E-03
   7103.00  6.9629035E-03
   7103.33  7.2231333E-03
   7103.67  7.5064037E-03
   7104.00  7.8160077E-03
   7104.33  8.1605227E-03
   7104.67  8.5419581E-03
   7105.00  8.9666009E-03
   7105.33  9.4502832E-03
   7105.67  9.9985211E-03
   7106.00  1.0624719E-02
   7106.33  1.1361867E-02
   7106.67  1.2225990E-02
   7107.00  1.3250288E-02
   7107.33  1.4516049E-02
   7107.67  1.6076991E-02
   7108.00  1.8035077E-02
   7108.33  2.0646589E-02
   7108.67  2.4143732E-02
   7109.00  2.8962107E-02
   7109.33  3.6291140E-02
   7109.67  4.7656989E-02
   7110.00  6.6103251E-02
   7110.33  1.0042610E-01
   7110.67  1.5753301E-01
   7111.00  2.2417601E-01
   7111.33  2.3949229E-01
   7111.67  2.1074757E-01
   7112.00  1.7188346E-01
   7112.33  1.4295718E-01
   7112.67  1.2411676E-01
   7113.00  1.1069228E-01
   7113.33  1.0036535E-01
   7113.67  9.4449984E-02
   7114.00  9.4394831E-02
   7114.33  9.2276267E-02
   7114.67  7.9057877E-02
   7115.00  6.2259216E-02
   7115.33  5.1181089E-02
   7115.67  4.5097133E-02
   7116.00  4.2296372E-02
   7116.33  4.1419546E-02
   7116.67  4.1178514E-02
   7117.00  4.1039142E-02
   7117.33  4.0883564E-02
   7117.67  4.0955431E-02
   7118.00  4.1480674E-02
   7118.33  4.2695428E-02
   7118.67  4.4636832E-02
   7119.00  4.7417628E-02
   7119.33  5.1288519E-02
   7119.67  5.6198246E-02
   7120.00  6.2131034E-02
   7120.33  6.9118514E-02
   7120.67  7.6967315E-02
   7121.00  8.5650164E-02
   7121.33  9.5146847E-02
   7121.67  1.0503365E-01
   7122.00  1.1494483E-01
   7122.33  1.2479488E-01
   7122.67  1.3532207E-01
   7123.00  1.4769025E-01
   7123.33  1.6374830E-01
   7123.67  1.8439495E-01
   7124.00  2.1070760E-01
   7124.33  2.4481302E-01
   7124.67  2.8683193E-01
   7125.00  3.3663235E-01
   7125.33  3.9221442E-01
   7125.67  4.4796096E-01
   7126.00  4.9997053E-01
   7126.33  5.4367251E-01
   7126.67  5.7614077E-01
   7127.00  5.9599805E-01
   7127.33  6.0545480E-01
   7127.67  6.1328053E-01
   7128.00  6.2623724E-01
   7128.33  6.5029355E-01
   7128.67  6.8552609E-01
   7129.00  7.3146065E-01
   7129.33  7.8710561E-01
   7129.67  8.4675584E-01
   7130.00  9.0367731E-01
   7130.33  9.4710969E-01
   7130.67  9.7305840E-01
   7131.00  9.8231571E-01
   7131.33  9.7796322E-01
   7131.67  9.6543758E-01
   7132.00  9.4564292E-01
   7132.33  9.1645024E-01
   7132.67  8.7879504E-01
   7133.00  8.3590289E-01
   7133.33  7.9435238E-01
   7133.67  7.5851966E-01
   7134.00  7.2910886E-01
   7134.33  7.0640382E-01
   7134.67  6.8980969E-01
   7135.00  6.7940269E-01
   7135.33  6.7509436E-01
   7135.67  6.7482727E-01
   7136.00  6.7730516E-01
   7136.33  6.8127054E-01
   7136.67  6.8535297E-01
   7137.00  6.8880031E-01
   7137.33  6.9104459E-01
   7137.67  6.9226087E-01
   7138.00  6.9275192E-01
   7138.33  6.9294051E-01
   7138.67  6.9325162E-01
   7139.00  6.9389736E-01
   7139.33  6.9502736E-01
   7139.67  6.9655602E-01
   7140.00  6.9839294E-01
   7140.33  7.0042036E-01
   7140.67  7.0243843E-01
   7141.00  7.0423310E-01
   7141.33  7.0539552E-01
   7141.67  7.0559193E-01
   7142.00  7.0448141E-01
   7142.33  7.0155694E-01
   7142.67  6.9687997E-01
   7143.00  6.9047497E-01
   7143.33  6.8231310E-01
   7143.67  6.7284965E-01
   7144.00  6.6233632E-01
   7144.33  6.5095860E-01
   7144.67  6.3905523E-01
   7145.00  6.2679676E-01
   7145.33  6.1431845E-01
   7145.67  6.0177543E-01
   7146.00  5.8926627E-01
   7146.33  5.7691130E-01
   7146.67  5.6478422E-01
   7147.00  5.5295088E-01
   7147.33  5.4150718E-01
   7147.67  5.3042845E-01
   7148.00  5.1971590E-01
   7148.33  5.0941928E-01
   7148.67  4.9950610E-01
   7149.00  4.8999792E-01
   7149.33  4.8098007E-01
   7149.67  4.7242453E-01
   7150.00  4.6435311E-01
   7150.33  4.5684868E-01
   7150.67  4.4984290E-01
   7151.00  4.4330190E-01
   7151.33  4.3719697E-01
   7151.67  4.3136764E-01
   7152.00  4.2570052E-01
   7152.33  4.2006443E-01
   7152.67  4.1433694E-01
   7153.00  4.0843784E-01
   7153.33  4.0227052E-01
   7153.67  3.9582618E-01
   7154.00  3.8909583E-01
   7154.33  3.8205651E-01
   7154.67  3.7477701E-01
   7155.00  3.6730464E-01
   7155.33  3.5968645E-01
   7155.67  3.5201270E-01
   7156.00  3.4435847E-01
   7156.33  3.3683600E-01
   7156.67  3.2953692E-01
   7157.00  3.2255794E-01
   7157.33  3.1606895E-01
   7157.67  3.1012921E-01
   7158.00  3.0483024E-01
   7158.33  3.0035716E-01
   7158.67  2.9669148E-01
   7159.00  2.9387836E-01
   7159.33  2.9205909E-01
   7159.67  2.9112917E-01
   7160.00  2.9107451E-01
   7160.33  2.9196372E-01
   7160.67  2.9363767E-01
   7161.00  2.9603838E-01
   7161.33  2.9916924E-01
   7161.67  3.0285889E-01
   7162.00  3.0702260E-01
   7162.33  3.1161642E-01
   7162.67  3.1649667E-01
   7163.00  3.2158325E-01
   7163.33  3.2681850E-01
   7163.67  3.3212549E-01
   7164.00  3.3746070E-01
   7164.33  3.4277940E-01
   7164.67  3.4804631E-01
   7165.00  3.5323533E-01
   7165.33  3.5831164E-01
   7165.67  3.6327273E-01
   7166.00  3.6811054E-01
   7166.33  3.7280600E-01
   7166.67  3.7737804E-01
   7167.00  3.8183371E-01
   7167.33  3.8617358E-01
   7167.67  3.9042863E-01
   7168.00  3.9461643E-01
   7168.33  3.9875218E-01
   7168.67  4.0286115E-01
   7169.00  4.0695702E-01
   7169.33  4.1105012E-01
   7169.67  4.1514288E-01
   7170.00  4.1922804E-01
   7170.33  4.2328123E-01
   7170.67  4.2726812E-01
   7171.00  4.3113688E-01
   7171.33  4.3476278E-01
   7171.67  4.3800515E-01
   7172.00  4.4065555E-01
