    FDMNES
    energy     <xanes>
   7097.00  4.1369311E-03
   7097.33  4.2225679E-03
   7097.67  4.3116978E-03
   7098.00  4.4045472E-03
   7098.33  4.5019086E-03
   7098.67  4.6036056E-03
   7099.00  4.7099471E-03
   7099.33  4.8219653E-03
   7099.67  4.9394817E-03
   7100.00  5.0629306E-03
   7100.33  5.1936954E-03
   7100.67  5.3316135E-03
   7101.00  5.4773171E-03
   7101.33  5.6327250E-03
   7101.67  5.7977308E-03
   7102.00  5.9732924E-03
   7102.33  6.1621838E-03
   7102.67  6.3644445E-03
   7103.00  6.5815978E-03
   7103.33  6.8178613E-03
   7103.67  7.0736253E-03
   7104.00  7.3514602E-03
   7104.33  7.6581898E-03
   7104.67  7.9950528E-03
   7105.00  8.3667174E-03
   7105.33  8.7851274E-03
   7105.67  9.2536795E-03
   7106.00  9.7816908E-03
   7106.33  1.0392329E-02
   7106.67  1.1095019E-02
   7107.00  1.1910871E-02
   7107.33  1.2891600E-02
   7107.67  1.4066193E-02
   7108.00  1.5491962E-02
   7108.33  1.7310624E-02
   7108.67  1.9631590E-02
   7109.00  2.2660479E-02
   7109.33  2.6935660E-02
   7109.67  3.3050502E-02
   7110.00  4.2159892E-02
   7110.33  5.7580812E-02
   7110.67  8.3123869E-02
   7111.00  1.2152556E-01
   7111.33  1.6701129E-01
   7111.67  1.9909820E-01
   7112.00  2.1459772E-01
   7112.33  2.4049878E-01
   7112.67  2.6465993E-01
   7113.00  2.5557349E-01
   7113.33  1.9793581E-01
   7113.67  1.3994208E-01
   7114.00  1.0074376E-01
   7114.33  7.9388902E-02
   7114.67  6.7901614E-02
   7115.00  6.0784718E-02
   7115.33  5.2149112E-02
   7115.67  4.4110978E-02
   7116.00  3.8588217E-02
   7116.33  3.5432053E-02
   7116.67  3.3605054E-02
   7117.00  3.2672029E-02
   7117.33  3.2371498E-02
   7117.67  3.2408425E-02
   7118.00  3.2672973E-02
   7118.33  3.3171206E-02
   7118.67  3.3929242E-02
   7119.00  3.4998219E-02
   7119.33  3.6467550E-02
   7119.67  3.8336700E-02
   7120.00  4.0658337E-02
   7120.33  4.3590002E-02
   7120.67  4.7188856E-02
   7121.00  5.1591777E-02
   7121.33  5.7116922E-02
   7121.67  6.3863581E-02
   7122.00  7.2044938E-02
   7122.33  8.2170673E-02
   7122.67  9.4435191E-02
   7123.00  1.0936566E-01
   7123.33  1.2831870E-01
   7123.67  1.5214727E-01
   7124.00  1.8231387E-01
   7124.33  2.2163649E-01
   7124.67  2.6913522E-01
   7125.00  3.2014931E-01
   7125.33  3.6180033E-01
   7125.67  3.8833213E-01
   7126.00  4.0368843E-01
   7126.33  4.1185039E-01
   7126.67  4.1398129E-01
   7127.00  4.1048829E-01
   7127.33  4.0463032E-01
   7127.67  4.0236909E-01
   7128.00  4.0749759E-01
   7128.33  4.2252897E-01
   7128.67  4.4578638E-01
   7129.00  4.7667955E-01
   7129.33  5.1628978E-01
   7129.67  5.6483361E-01
   7130.00  6.2445844E-01
   7130.33  7.0038278E-01
   7130.67  7.9218788E-01
   7131.00  8.9580030E-01
   7131.33  9.9809596E-01
   7131.67  1.0823571E+00
   7132.00  1.1389304E+00
   7132.33  1.1635672E+00
   7132.67  1.1650397E+00
   7133.00  1.1460998E+00
   7133.33  1.1048855E+00
   7133.67  1.0490758E+00
   7134.00  9.9001655E-01
   7134.33  9.4313413E-01
   7134.67  9.1296226E-01
   7135.00  8.9696075E-01
   7135.33  8.8866746E-01
   7135.67  8.8007787E-01
   7136.00  8.6749759E-01
   7136.33  8.4919598E-01
   7136.67  8.2695467E-01
   7137.00  8.0239210E-01
   7137.33  7.7718041E-01
   7137.67  7.5266477E-01
   7138.00  7.2955706E-01
   7138.33  7.0858437E-01
   7138.67  6.8974545E-01
   7139.00  6.7310451E-01
   7139.33  6.5889143E-01
   7139.67  6.4672132E-01
   7140.00  6.3646182E-01
   7140.33  6.2814347E-01
   7140.67  6.2133736E-01
   7141.00  6.1584215E-01
   7141.33  6.1153774E-01
   7141.67  6.0802714E-01
   7142.00  6.0508126E-01
   7142.33  6.0248547E-01
   7142.67  5.9999737E-01
   7143.00  5.9750446E-01
   7143.33  5.9492272E-01
   7143.67  5.9226177E-01
   7144.00  5.8959028E-01
   7144.33  5.8707714E-01
   7144.67  5.8491449E-01
   7145.00  5.8330962E-01
   7145.33  5.8260341E-01
   7145.67  5.8289585E-01
   7146.00  5.8430053E-01
   7146.33  5.8698619E-01
   7146.67  5.9065950E-01
   7147.00  5.9502200E-01
   7147.33  5.9957239E-01
   7147.67  6.0368313E-01
   7148.00  6.0688452E-01
   7148.33  6.0861426E-01
   7148.67  6.0882600E-01
   7149.00  6.0747513E-01
   7149.33  6.0443125E-01
   7149.67  6.0000397E-01
   7150.00  5.9431393E-01
   7150.33  5.8735750E-01
   7150.67  5.7939946E-01
   7151.00  5.7053281E-01
   7151.33  5.6075362E-01
   7151.67  5.5026549E-01
   7152.00  5.3915106E-01
   7152.33  5.2741205E-01
   7152.67  5.1517332E-01
   7153.00  5.0247557E-01
   7153.33  4.8930672E-01
   7153.67  4.7575603E-01
   7154.00  4.6185391E-01
   7154.33  4.4759762E-01
   7154.67  4.3306891E-01
   7155.00  4.1831323E-01
   7155.33  4.0337723E-01
   7155.67  3.8836516E-01
   7156.00  3.7336351E-01
   7156.33  3.5849949E-01
   7156.67  3.4387428E-01
   7157.00  3.2958554E-01
   7157.33  3.1579316E-01
   7157.67  3.0253473E-01
   7158.00  2.8988015E-01
   7158.33  2.7798412E-01
   7158.67  2.6682519E-01
   7159.00  2.5645596E-01
   7159.33  2.4704640E-01
   7159.67  2.3855912E-01
   7160.00  2.3105991E-01
   7160.33  2.2476601E-01
   7160.67  2.1963069E-01
   7161.00  2.1572466E-01
   7161.33  2.1328755E-01
   7161.67  2.1222671E-01
   7162.00  2.1258728E-01
   7162.33  2.1457410E-01
   7162.67  2.1798553E-01
   7163.00  2.2275521E-01
   7163.33  2.2891172E-01
   7163.67  2.3611428E-01
   7164.00  2.4417392E-01
   7164.33  2.5294599E-01
   7164.67  2.6211826E-01
   7165.00  2.7149070E-01
   7165.33  2.8084447E-01
   7165.67  2.8999577E-01
   7166.00  2.9881670E-01
   7166.33  3.0714423E-01
   7166.67  3.1496811E-01
   7167.00  3.2226369E-01
   7167.33  3.2896709E-01
   7167.67  3.3517084E-01
   7168.00  3.4091159E-01
   7168.33  3.4619086E-01
   7168.67  3.5111748E-01
   7169.00  3.5574075E-01
   7169.33  3.6008443E-01
   7169.67  3.6422856E-01
   7170.00  3.6820799E-01
   7170.33  3.7203475E-01
   7170.67  3.7573637E-01
   7171.00  3.7929988E-01
   7171.33  3.8264366E-01
   7171.67  3.8565602E-01
   7172.00  3.8814245E-01
