    FDMNES
    energy     <xanes>
   7097.00  4.5908979E-03
   7097.33  4.6976888E-03
   7097.67  4.8095133E-03
   7098.00  4.9267361E-03
   7098.33  5.0505640E-03
   7098.67  5.1807940E-03
   7099.00  5.3179345E-03
   7099.33  5.4635975E-03
   7099.67  5.6175908E-03
   7100.00  5.7806441E-03
   7100.33  5.9549755E-03
   7100.67  6.1404400E-03
   7101.00  6.3381218E-03
   7101.33  6.5511816E-03
   7101.67  6.7796015E-03
   7102.00  7.0250595E-03
   7102.33  7.2922509E-03
   7102.67  7.5814627E-03
   7103.00  7.8954211E-03
   7103.33  8.2414651E-03
   7103.67  8.6205946E-03
   7104.00  9.0375119E-03
   7104.33  9.5044321E-03
   7104.67  1.0024068E-02
   7105.00  1.0605162E-02
   7105.33  1.1269738E-02
   7105.67  1.2024893E-02
   7106.00  1.2888542E-02
   7106.33  1.3904798E-02
   7106.67  1.5093221E-02
   7107.00  1.6495689E-02
   7107.33  1.8214371E-02
   7107.67  2.0310409E-02
   7108.00  2.2902047E-02
   7108.33  2.6282470E-02
   7108.67  3.0690879E-02
   7109.00  3.6574685E-02
   7109.33  4.5119014E-02
   7109.67  5.7697197E-02
   7110.00  7.6998223E-02
   7110.33  1.1073942E-01
   7110.67  1.6669316E-01
   7111.00  2.4445273E-01
   7111.33  3.1990575E-01
   7111.67  3.8931581E-01
   7112.00  4.4502173E-01
   7112.33  4.2686825E-01
   7112.67  3.5173888E-01
   7113.00  2.7198635E-01
   7113.33  2.1053446E-01
   7113.67  1.6428855E-01
   7114.00  1.3104590E-01
   7114.33  1.0837867E-01
   7114.67  9.2416927E-02
   7115.00  8.1295858E-02
   7115.33  7.3193091E-02
   7115.67  6.7380395E-02
   7116.00  6.3908495E-02
   7116.33  6.2444736E-02
   7116.67  6.2247554E-02
   7117.00  6.3034934E-02
   7117.33  6.4613758E-02
   7117.67  6.6558075E-02
   7118.00  6.8505421E-02
   7118.33  7.0122440E-02
   7118.67  7.1458351E-02
   7119.00  7.2649844E-02
   7119.33  7.3968694E-02
   7119.67  7.5738993E-02
   7120.00  7.8257824E-02
   7120.33  8.1952808E-02
   7120.67  8.6899026E-02
   7121.00  9.3251794E-02
   7121.33  1.0147870E-01
   7121.67  1.1176921E-01
   7122.00  1.2456808E-01
   7122.33  1.4085416E-01
   7122.67  1.6086886E-01
   7123.00  1.8513576E-01
   7123.33  2.1464749E-01
   7123.67  2.4861242E-01
   7124.00  2.8597643E-01
   7124.33  3.2435699E-01
   7124.67  3.6003968E-01
   7125.00  3.8974597E-01
   7125.33  4.0972805E-01
   7125.67  4.2089780E-01
   7126.00  4.2497677E-01
   7126.33  4.2427449E-01
   7126.67  4.2166579E-01
   7127.00  4.1817063E-01
   7127.33  4.1386397E-01
   7127.67  4.0844179E-01
   7128.00  4.0154733E-01
   7128.33  3.9303919E-01
   7128.67  3.8385789E-01
   7129.00  3.7502701E-01
   7129.33  3.6785120E-01
   7129.67  3.6288208E-01
   7130.00  3.6043376E-01
   7130.33  3.6100458E-01
   7130.67  3.6437982E-01
   7131.00  3.7067219E-01
   7131.33  3.8030487E-01
   7131.67  3.9273917E-01
   7132.00  4.0759961E-01
   7132.33  4.2448328E-01
   7132.67  4.4263132E-01
   7133.00  4.6195135E-01
   7133.33  4.8278019E-01
   7133.67  5.0442256E-01
   7134.00  5.2535860E-01
   7134.33  5.4323137E-01
   7134.67  5.5757385E-01
   7135.00  5.6892419E-01
   7135.33  5.7837649E-01
   7135.67  5.8734164E-01
   7136.00  5.9644997E-01
   7136.33  6.0602921E-01
   7136.67  6.1598777E-01
   7137.00  6.2620496E-01
   7137.33  6.3661331E-01
   7137.67  6.4723130E-01
   7138.00  6.5818772E-01
   7138.33  6.6973643E-01
   7138.67  6.8194029E-01
   7139.00  6.9479186E-01
   7139.33  7.0815657E-01
   7139.67  7.2159954E-01
   7140.00  7.3470094E-01
   7140.33  7.4685547E-01
   7140.67  7.5775822E-01
   7141.00  7.6718541E-01
   7141.33  7.7484307E-01
   7141.67  7.8094537E-01
   7142.00  7.8554360E-01
   7142.33  7.8855714E-01
   7142.67  7.9029075E-01
   7143.00  7.9086909E-01
   7143.33  7.9032167E-01
   7143.67  7.8893766E-01
   7144.00  7.8686598E-01
   7144.33  7.8422443E-01
   7144.67  7.8125958E-01
   7145.00  7.7812320E-01
   7145.33  7.7497411E-01
   7145.67  7.7194651E-01
   7146.00  7.6912731E-01
   7146.33  7.6661800E-01
   7146.67  7.6441573E-01
   7147.00  7.6252161E-01
   7147.33  7.6094144E-01
   7147.67  7.5957616E-01
   7148.00  7.5835521E-01
   7148.33  7.5720189E-01
   7148.67  7.5602987E-01
   7149.00  7.5477864E-01
   7149.33  7.5336467E-01
   7149.67  7.5174924E-01
   7150.00  7.4988944E-01
   7150.33  7.4769863E-01
   7150.67  7.4515766E-01
   7151.00  7.4221050E-01
   7151.33  7.3872207E-01
   7151.67  7.3467132E-01
   7152.00  7.2998921E-01
   7152.33  7.2451727E-01
   7152.67  7.1829392E-01
   7153.00  7.1130108E-01
   7153.33  7.0345432E-01
   7153.67  6.9489274E-01
   7154.00  6.8567832E-01
   7154.33  6.7583316E-01
   7154.67  6.6553525E-01
   7155.00  6.5488356E-01
   7155.33  6.4395538E-01
   7155.67  6.3288110E-01
   7156.00  6.2174575E-01
   7156.33  6.1065405E-01
   7156.67  5.9969472E-01
   7157.00  5.8893991E-01
   7157.33  5.7849651E-01
   7157.67  5.6838751E-01
   7158.00  5.5864850E-01
   7158.33  5.4935001E-01
   7158.67  5.4044292E-01
   7159.00  5.3191282E-01
   7159.33  5.2377143E-01
   7159.67  5.1592769E-01
   7160.00  5.0833277E-01
   7160.33  5.0095176E-01
   7160.67  4.9370928E-01
   7161.00  4.8657417E-01
   7161.33  4.7953572E-01
   7161.67  4.7257436E-01
   7162.00  4.6569247E-01
   7162.33  4.5892879E-01
   7162.67  4.5231313E-01
   7163.00  4.4588664E-01
   7163.33  4.3972667E-01
   7163.67  4.3384820E-01
   7164.00  4.2828500E-01
   7164.33  4.2311253E-01
   7164.67  4.1831104E-01
   7165.00  4.1389444E-01
   7165.33  4.0992056E-01
   7165.67  4.0633874E-01
   7166.00  4.0314030E-01
   7166.33  4.0036387E-01
   7166.67  3.9795640E-01
   7167.00  3.9591221E-01
   7167.33  3.9426872E-01
   7167.67  3.9297414E-01
   7168.00  3.9202176E-01
   7168.33  3.9144411E-01
   7168.67  3.9118859E-01
   7169.00  3.9124369E-01
   7169.33  3.9162958E-01
   7169.67  3.9228871E-01
   7170.00  3.9319887E-01
   7170.33  3.9435438E-01
   7170.67  3.9568528E-01
   7171.00  3.9714343E-01
   7171.33  3.9865405E-01
   7171.67  4.0008158E-01
   7172.00  4.0126526E-01
