    FDMNES
    energy     <xanes>
   7097.00  4.6021712E-03
   7097.33  4.7097248E-03
   7097.67  4.8223708E-03
   7098.00  4.9404793E-03
   7098.33  5.0652733E-03
   7098.67  5.1965491E-03
   7099.00  5.3348231E-03
   7099.33  5.4817301E-03
   7099.67  5.6370779E-03
   7100.00  5.8016081E-03
   7100.33  5.9775723E-03
   7100.67  6.1648269E-03
   7101.00  6.3644749E-03
   7101.33  6.5797273E-03
   7101.67  6.8105714E-03
   7102.00  7.0587152E-03
   7102.33  7.3289341E-03
   7102.67  7.6215277E-03
   7103.00  7.9392738E-03
   7103.33  8.2896447E-03
   7103.67  8.6736705E-03
   7104.00  9.0961484E-03
   7104.33  9.5695309E-03
   7104.67  1.0096605E-02
   7105.00  1.0686301E-02
   7105.33  1.1361106E-02
   7105.67  1.2128310E-02
   7106.00  1.3006247E-02
   7106.33  1.4040048E-02
   7106.67  1.5249828E-02
   7107.00  1.6678554E-02
   7107.33  1.8431056E-02
   7107.67  2.0570375E-02
   7108.00  2.3218290E-02
   7108.33  2.6676904E-02
   7108.67  3.1193961E-02
   7109.00  3.7232824E-02
   7109.33  4.6022535E-02
   7109.67  5.8994650E-02
   7110.00  7.8955695E-02
   7110.33  1.1398795E-01
   7110.67  1.7237976E-01
   7111.00  2.5390981E-01
   7111.33  3.2914687E-01
   7111.67  3.8890225E-01
   7112.00  4.3605807E-01
   7112.33  4.2449653E-01
   7112.67  3.5760289E-01
   7113.00  2.8060790E-01
   7113.33  2.1839561E-01
   7113.67  1.7062845E-01
   7114.00  1.3586951E-01
   7114.33  1.1184671E-01
   7114.67  9.4630623E-02
   7115.00  8.2564439E-02
   7115.33  7.3915062E-02
   7115.67  6.7661292E-02
   7116.00  6.3861346E-02
   7116.33  6.2209170E-02
   7116.67  6.1912474E-02
   7117.00  6.2677972E-02
   7117.33  6.4318347E-02
   7117.67  6.6373200E-02
   7118.00  6.8447881E-02
   7118.33  7.0170840E-02
   7118.67  7.1582924E-02
   7119.00  7.2807385E-02
   7119.33  7.4087246E-02
   7119.67  7.5779523E-02
   7120.00  7.8201609E-02
   7120.33  8.1771563E-02
   7120.67  8.6562335E-02
   7121.00  9.2733076E-02
   7121.33  1.0074182E-01
   7121.67  1.1075456E-01
   7122.00  1.2317647E-01
   7122.33  1.3890158E-01
   7122.67  1.5811120E-01
   7123.00  1.8127114E-01
   7123.33  2.0935931E-01
   7123.67  2.4184478E-01
   7124.00  2.7807898E-01
   7124.33  3.1634862E-01
   7124.67  3.5303067E-01
   7125.00  3.8455531E-01
   7125.33  4.0678366E-01
   7125.67  4.2027772E-01
   7126.00  4.2639919E-01
   7126.33  4.2685511E-01
   7126.67  4.2444093E-01
   7127.00  4.2033529E-01
   7127.33  4.1477892E-01
   7127.67  4.0774363E-01
   7128.00  3.9913611E-01
   7128.33  3.8921530E-01
   7128.67  3.7908663E-01
   7129.00  3.6973903E-01
   7129.33  3.6237003E-01
   7129.67  3.5739012E-01
   7130.00  3.5507694E-01
   7130.33  3.5589654E-01
   7130.67  3.5952643E-01
   7131.00  3.6597953E-01
   7131.33  3.7557998E-01
   7131.67  3.8780544E-01
   7132.00  4.0233059E-01
   7132.33  4.1882831E-01
   7132.67  4.3657238E-01
   7133.00  4.5544261E-01
   7133.33  4.7591633E-01
   7133.67  4.9775250E-01
   7134.00  5.1974291E-01
   7134.33  5.3933037E-01
   7134.67  5.5532993E-01
   7135.00  5.6791170E-01
   7135.33  5.7809763E-01
   7135.67  5.8760503E-01
   7136.00  5.9731109E-01
   7136.33  6.0774835E-01
   7136.67  6.1878664E-01
   7137.00  6.3015994E-01
   7137.33  6.4153129E-01
   7137.67  6.5271782E-01
   7138.00  6.6374506E-01
   7138.33  6.7481545E-01
   7138.67  6.8617983E-01
   7139.00  6.9799617E-01
   7139.33  7.1033880E-01
   7139.67  7.2294587E-01
   7140.00  7.3549204E-01
   7140.33  7.4744695E-01
   7140.67  7.5843989E-01
   7141.00  7.6819988E-01
   7141.33  7.7637585E-01
   7141.67  7.8307373E-01
   7142.00  7.8830154E-01
   7142.33  7.9195195E-01
   7142.67  7.9429583E-01
   7143.00  7.9541995E-01
   7143.33  7.9529081E-01
   7143.67  7.9416986E-01
   7144.00  7.9218511E-01
   7144.33  7.8943244E-01
   7144.67  7.8620661E-01
   7145.00  7.8269755E-01
   7145.33  7.7910939E-01
   7145.67  7.7563439E-01
   7146.00  7.7239452E-01
   7146.33  7.6952449E-01
   7146.67  7.6702507E-01
   7147.00  7.6489512E-01
   7147.33  7.6313844E-01
   7147.67  7.6164019E-01
   7148.00  7.6031552E-01
   7148.33  7.5907386E-01
   7148.67  7.5781429E-01
   7149.00  7.5646697E-01
   7149.33  7.5493958E-01
   7149.67  7.5319069E-01
   7150.00  7.5117874E-01
   7150.33  7.4882860E-01
   7150.67  7.4614684E-01
   7151.00  7.4310664E-01
   7151.33  7.3961957E-01
   7151.67  7.3568231E-01
   7152.00  7.3123545E-01
   7152.33  7.2612193E-01
   7152.67  7.2032849E-01
   7153.00  7.1378898E-01
   7153.33  7.0635175E-01
   7153.67  6.9810551E-01
   7154.00  6.8908008E-01
   7154.33  6.7926701E-01
   7154.67  6.6887444E-01
   7155.00  6.5802776E-01
   7155.33  6.4683716E-01
   7155.67  6.3548659E-01
   7156.00  6.2409532E-01
   7156.33  6.1279410E-01
   7156.67  6.0167109E-01
   7157.00  5.9079490E-01
   7157.33  5.8026923E-01
   7157.67  5.7010659E-01
   7158.00  5.6034163E-01
   7158.33  5.5105460E-01
   7158.67  5.4220374E-01
   7159.00  5.3378709E-01
   7159.33  5.2584093E-01
   7159.67  5.1827529E-01
   7160.00  5.1104127E-01
   7160.33  5.0410203E-01
   7160.67  4.9735104E-01
   7161.00  4.9073049E-01
   7161.33  4.8419282E-01
   7161.67  4.7768549E-01
   7162.00  4.7118406E-01
   7162.33  4.6469030E-01
   7162.67  4.5823348E-01
   7163.00  4.5185203E-01
   7163.33  4.4561382E-01
   7163.67  4.3955834E-01
   7164.00  4.3373245E-01
   7164.33  4.2822064E-01
   7164.67  4.2303009E-01
   7165.00  4.1819029E-01
   7165.33  4.1377352E-01
   7165.67  4.0974466E-01
   7166.00  4.0610336E-01
   7166.33  4.0289624E-01
   7166.67  4.0007257E-01
   7167.00  3.9762748E-01
   7167.33  3.9559925E-01
   7167.67  3.9393222E-01
   7168.00  3.9261768E-01
   7168.33  3.9168712E-01
   7168.67  3.9108551E-01
   7169.00  3.9080095E-01
   7169.33  3.9085492E-01
   7169.67  3.9119047E-01
   7170.00  3.9178749E-01
   7170.33  3.9264538E-01
   7170.67  3.9369637E-01
   7171.00  3.9489621E-01
   7171.33  3.9617888E-01
   7171.67  3.9741230E-01
   7172.00  3.9844254E-01
