    FDMNES
    energy     <xanes>
   7097.00  5.1363218E-03
   7097.33  5.2646830E-03
   7097.67  5.3992527E-03
   7098.00  5.5404760E-03
   7098.33  5.6898318E-03
   7098.67  5.8470604E-03
   7099.00  6.0127766E-03
   7099.33  6.1889425E-03
   7099.67  6.3753024E-03
   7100.00  6.5727285E-03
   7100.33  6.7838957E-03
   7100.67  7.0085890E-03
   7101.00  7.2480857E-03
   7101.33  7.5061502E-03
   7101.67  7.7826887E-03
   7102.00  8.0796436E-03
   7102.33  8.4025178E-03
   7102.67  8.7515156E-03
   7103.00  9.1297265E-03
   7103.33  9.5455753E-03
   7103.67  9.9999661E-03
   7104.00  1.0498091E-02
   7104.33  1.1053610E-02
   7104.67  1.1669088E-02
   7105.00  1.2353878E-02
   7105.33  1.3131805E-02
   7105.67  1.4009596E-02
   7106.00  1.5005685E-02
   7106.33  1.6165834E-02
   7106.67  1.7508222E-02
   7107.00  1.9073907E-02
   7107.33  2.0963384E-02
   7107.67  2.3231377E-02
   7108.00  2.5986954E-02
   7108.33  2.9499299E-02
   7108.67  3.3970609E-02
   7109.00  3.9782153E-02
   7109.33  4.7927844E-02
   7109.67  5.9479687E-02
   7110.00  7.6523534E-02
   7110.33  1.0506882E-01
   7110.67  1.5235412E-01
   7111.00  2.2422159E-01
   7111.33  3.0471499E-01
   7111.67  3.6797214E-01
   7112.00  4.1892080E-01
   7112.33  4.6221733E-01
   7112.67  4.9783662E-01
   7113.00  5.1618523E-01
   7113.33  5.1254608E-01
   7113.67  4.6361606E-01
   7114.00  3.7180993E-01
   7114.33  2.8407629E-01
   7114.67  2.2177014E-01
   7115.00  1.8384580E-01
   7115.33  1.6766114E-01
   7115.67  1.6681361E-01
   7116.00  1.7591956E-01
   7116.33  1.8143009E-01
   7116.67  1.7275729E-01
   7117.00  1.5157485E-01
   7117.33  1.2831939E-01
   7117.67  1.1007504E-01
   7118.00  9.7542625E-02
   7118.33  9.0154430E-02
   7118.67  8.6085720E-02
   7119.00  8.4377409E-02
   7119.33  8.4118137E-02
   7119.67  8.4282626E-02
   7120.00  8.4578428E-02
   7120.33  8.5248264E-02
   7120.67  8.6599455E-02
   7121.00  8.8786572E-02
   7121.33  9.1908780E-02
   7121.67  9.6114528E-02
   7122.00  1.0202764E-01
   7122.33  1.1077623E-01
   7122.67  1.2275339E-01
   7123.00  1.3859665E-01
   7123.33  1.5973455E-01
   7123.67  1.8636562E-01
   7124.00  2.1881860E-01
   7124.33  2.5714248E-01
   7124.67  2.9860256E-01
   7125.00  3.4038974E-01
   7125.33  3.7834491E-01
   7125.67  4.0959860E-01
   7126.00  4.3238568E-01
   7126.33  4.4503255E-01
   7126.67  4.4942187E-01
   7127.00  4.4701400E-01
   7127.33  4.3977969E-01
   7127.67  4.3109920E-01
   7128.00  4.2305465E-01
   7128.33  4.1755144E-01
   7128.67  4.1524468E-01
   7129.00  4.1659545E-01
   7129.33  4.2224209E-01
   7129.67  4.3154754E-01
   7130.00  4.4433142E-01
   7130.33  4.6104740E-01
   7130.67  4.8150269E-01
   7131.00  5.0577346E-01
   7131.33  5.3385847E-01
   7131.67  5.6440113E-01
   7132.00  5.9653166E-01
   7132.33  6.2975817E-01
   7132.67  6.6399935E-01
   7133.00  6.9959872E-01
   7133.33  7.3667512E-01
   7133.67  7.7376500E-01
   7134.00  8.0881653E-01
   7134.33  8.3865223E-01
   7134.67  8.6174412E-01
   7135.00  8.7675568E-01
   7135.33  8.8149806E-01
   7135.67  8.7700224E-01
   7136.00  8.6422777E-01
   7136.33  8.4445312E-01
   7136.67  8.2080463E-01
   7137.00  7.9505540E-01
   7137.33  7.6869618E-01
   7137.67  7.4283986E-01
   7138.00  7.1809868E-01
   7138.33  6.9528012E-01
   7138.67  6.7477686E-01
   7139.00  6.5710844E-01
   7139.33  6.4316879E-01
   7139.67  6.3277311E-01
   7140.00  6.2589202E-01
   7140.33  6.2268169E-01
   7140.67  6.2233302E-01
   7141.00  6.2444001E-01
   7141.33  6.2873460E-01
   7141.67  6.3443256E-01
   7142.00  6.4105715E-01
   7142.33  6.4812398E-01
   7142.67  6.5512660E-01
   7143.00  6.6176084E-01
   7143.33  6.6769164E-01
   7143.67  6.7281758E-01
   7144.00  6.7701985E-01
   7144.33  6.8004998E-01
   7144.67  6.8194584E-01
   7145.00  6.8266509E-01
   7145.33  6.8207584E-01
   7145.67  6.8041008E-01
   7146.00  6.7779121E-01
   7146.33  6.7429944E-01
   7146.67  6.7021693E-01
   7147.00  6.6569111E-01
   7147.33  6.6083184E-01
   7147.67  6.5579399E-01
   7148.00  6.5065599E-01
   7148.33  6.4548152E-01
   7148.67  6.4033209E-01
   7149.00  6.3525193E-01
   7149.33  6.3029607E-01
   7149.67  6.2548302E-01
   7150.00  6.2083575E-01
   7150.33  6.1639550E-01
   7150.67  6.1214568E-01
   7151.00  6.0808464E-01
   7151.33  6.0422538E-01
   7151.67  6.0052578E-01
   7152.00  5.9696047E-01
   7152.33  5.9350049E-01
   7152.67  5.9008394E-01
   7153.00  5.8666352E-01
   7153.33  5.8317449E-01
   7153.67  5.7956802E-01
   7154.00  5.7579875E-01
   7154.33  5.7179358E-01
   7154.67  5.6753986E-01
   7155.00  5.6301113E-01
   7155.33  5.5814812E-01
   7155.67  5.5297698E-01
   7156.00  5.4749791E-01
   7156.33  5.4168420E-01
   7156.67  5.3559243E-01
   7157.00  5.2924658E-01
   7157.33  5.2266295E-01
   7157.67  5.1592681E-01
   7158.00  5.0909947E-01
   7158.33  5.0226053E-01
   7158.67  4.9549986E-01
   7159.00  4.8889648E-01
   7159.33  4.8257253E-01
   7159.67  4.7658257E-01
   7160.00  4.7099103E-01
   7160.33  4.6591453E-01
   7160.67  4.6133400E-01
   7161.00  4.5726289E-01
   7161.33  4.5375527E-01
   7161.67  4.5071380E-01
   7162.00  4.4808921E-01
   7162.33  4.4584517E-01
   7162.67  4.4383583E-01
   7163.00  4.4196019E-01
   7163.33  4.4011367E-01
   7163.67  4.3820263E-01
   7164.00  4.3616378E-01
   7164.33  4.3392025E-01
   7164.67  4.3146415E-01
   7165.00  4.2878822E-01
   7165.33  4.2587738E-01
   7165.67  4.2278473E-01
   7166.00  4.1954279E-01
   7166.33  4.1618359E-01
   7166.67  4.1276880E-01
   7167.00  4.0934011E-01
   7167.33  4.0594872E-01
   7167.67  4.0263736E-01
   7168.00  3.9944974E-01
   7168.33  3.9645427E-01
   7168.67  3.9366129E-01
   7169.00  3.9109261E-01
   7169.33  3.8880239E-01
   7169.67  3.8677639E-01
   7170.00  3.8502220E-01
   7170.33  3.8357469E-01
   7170.67  3.8239268E-01
   7171.00  3.8146366E-01
   7171.33  3.8079175E-01
   7171.67  3.8030747E-01
   7172.00  3.7995763E-01
