    FDMNES
    energy     <xanes>
   7097.00  5.1522844E-03
   7097.33  5.2730071E-03
   7097.67  5.3991503E-03
   7098.00  5.5310750E-03
   7098.33  5.6700255E-03
   7098.67  5.8157367E-03
   7099.00  5.9686971E-03
   7099.33  6.1305245E-03
   7099.67  6.3009429E-03
   7100.00  6.4806302E-03
   7100.33  6.6717414E-03
   7100.67  6.8740102E-03
   7101.00  7.0884050E-03
   7101.33  7.3178801E-03
   7101.67  7.5622254E-03
   7102.00  7.8228729E-03
   7102.33  8.1040142E-03
   7102.67  8.4055984E-03
   7103.00  8.7298318E-03
   7103.33  9.0829158E-03
   7103.67  9.4651904E-03
   7104.00  9.8802315E-03
   7104.33  1.0337704E-02
   7104.67  1.0838882E-02
   7105.00  1.1389944E-02
   7105.33  1.2006986E-02
   7105.67  1.2693595E-02
   7106.00  1.3461364E-02
   7106.33  1.4339572E-02
   7106.67  1.5337983E-02
   7107.00  1.6480967E-02
   7107.33  1.7828755E-02
   7107.67  1.9410008E-02
   7108.00  2.1285120E-02
   7108.33  2.3603168E-02
   7108.67  2.6464969E-02
   7109.00  3.0064870E-02
   7109.33  3.4903884E-02
   7109.67  4.1481951E-02
   7110.00  5.0769501E-02
   7110.33  6.5499611E-02
   7110.67  8.8694587E-02
   7111.00  1.2287928E-01
   7111.33  1.6730619E-01
   7111.67  2.1450698E-01
   7112.00  2.5738962E-01
   7112.33  2.9324732E-01
   7112.67  3.2098504E-01
   7113.00  3.4672914E-01
   7113.33  3.8852437E-01
   7113.67  4.4410370E-01
   7114.00  4.8998760E-01
   7114.33  4.8101144E-01
   7114.67  4.2624051E-01
   7115.00  3.5886081E-01
   7115.33  3.0489145E-01
   7115.67  2.6683082E-01
   7116.00  2.4194400E-01
   7116.33  2.2703579E-01
   7116.67  2.1611884E-01
   7117.00  2.0454975E-01
   7117.33  1.8948928E-01
   7117.67  1.7445462E-01
   7118.00  1.6275407E-01
   7118.33  1.5596227E-01
   7118.67  1.5254576E-01
   7119.00  1.5105199E-01
   7119.33  1.4976785E-01
   7119.67  1.4767417E-01
   7120.00  1.4481546E-01
   7120.33  1.4182442E-01
   7120.67  1.3927217E-01
   7121.00  1.3735961E-01
   7121.33  1.3637811E-01
   7121.67  1.3670864E-01
   7122.00  1.3912737E-01
   7122.33  1.4501443E-01
   7122.67  1.5442097E-01
   7123.00  1.6716988E-01
   7123.33  1.8305732E-01
   7123.67  2.0083668E-01
   7124.00  2.1936704E-01
   7124.33  2.3727904E-01
   7124.67  2.5440032E-01
   7125.00  2.7157620E-01
   7125.33  2.9030227E-01
   7125.67  3.1132053E-01
   7126.00  3.3495866E-01
   7126.33  3.6143900E-01
   7126.67  3.8985376E-01
   7127.00  4.1934218E-01
   7127.33  4.4865787E-01
   7127.67  4.7668448E-01
   7128.00  5.0291044E-01
   7128.33  5.2726956E-01
   7128.67  5.5059664E-01
   7129.00  5.7348224E-01
   7129.33  5.9638535E-01
   7129.67  6.1950822E-01
   7130.00  6.4287252E-01
   7130.33  6.6625405E-01
   7130.67  6.8909761E-01
   7131.00  7.1080595E-01
   7131.33  7.3059169E-01
   7131.67  7.4832339E-01
   7132.00  7.6386188E-01
   7132.33  7.7694246E-01
   7132.67  7.8802533E-01
   7133.00  7.9733397E-01
   7133.33  8.0486667E-01
   7133.67  8.1089696E-01
   7134.00  8.1542283E-01
   7134.33  8.1819035E-01
   7134.67  8.1919952E-01
   7135.00  8.1804579E-01
   7135.33  8.1353581E-01
   7135.67  8.0514045E-01
   7136.00  7.9245475E-01
   7136.33  7.7517329E-01
   7136.67  7.5451402E-01
   7137.00  7.3123664E-01
   7137.33  7.0609136E-01
   7137.67  6.8034320E-01
   7138.00  6.5495537E-01
   7138.33  6.3119676E-01
   7138.67  6.0982103E-01
   7139.00  5.9140663E-01
   7139.33  5.7671173E-01
   7139.67  5.6533798E-01
   7140.00  5.5710237E-01
   7140.33  5.5201080E-01
   7140.67  5.4931536E-01
   7141.00  5.4867363E-01
   7141.33  5.4991419E-01
   7141.67  5.5246022E-01
   7142.00  5.5598625E-01
   7142.33  5.6013719E-01
   7142.67  5.6434454E-01
   7143.00  5.6812076E-01
   7143.33  5.7074565E-01
   7143.67  5.7182602E-01
   7144.00  5.7106195E-01
   7144.33  5.6808360E-01
   7144.67  5.6322827E-01
   7145.00  5.5672076E-01
   7145.33  5.4878287E-01
   7145.67  5.4000121E-01
   7146.00  5.3072784E-01
   7146.33  5.2130462E-01
   7146.67  5.1203950E-01
   7147.00  5.0313001E-01
   7147.33  4.9481875E-01
   7147.67  4.8716730E-01
   7148.00  4.8025539E-01
   7148.33  4.7424979E-01
   7148.67  4.6909547E-01
   7149.00  4.6482117E-01
   7149.33  4.6156717E-01
   7149.67  4.5924260E-01
   7150.00  4.5786218E-01
   7150.33  4.5755649E-01
   7150.67  4.5820769E-01
   7151.00  4.5980814E-01
   7151.33  4.6245386E-01
   7151.67  4.6599048E-01
   7152.00  4.7036764E-01
   7152.33  4.7560362E-01
   7152.67  4.8150793E-01
   7153.00  4.8798676E-01
   7153.33  4.9497740E-01
   7153.67  5.0229639E-01
   7154.00  5.0983360E-01
   7154.33  5.1747760E-01
   7154.67  5.2510368E-01
   7155.00  5.3262597E-01
   7155.33  5.3993592E-01
   7155.67  5.4698797E-01
   7156.00  5.5373360E-01
   7156.33  5.6008262E-01
   7156.67  5.6604036E-01
   7157.00  5.7157619E-01
   7157.33  5.7659768E-01
   7157.67  5.8112505E-01
   7158.00  5.8512468E-01
   7158.33  5.8848563E-01
   7158.67  5.9124041E-01
   7159.00  5.9335980E-01
   7159.33  5.9473443E-01
   7159.67  5.9543052E-01
   7160.00  5.9544448E-01
   7160.33  5.9470245E-01
   7160.67  5.9331381E-01
   7161.00  5.9131138E-01
   7161.33  5.8867344E-01
   7161.67  5.8552854E-01
   7162.00  5.8193111E-01
   7162.33  5.7789848E-01
   7162.67  5.7354642E-01
   7163.00  5.6893407E-01
   7163.33  5.6409637E-01
   7163.67  5.5909774E-01
   7164.00  5.5396457E-01
   7164.33  5.4871288E-01
   7164.67  5.4337943E-01
   7165.00  5.3798247E-01
   7165.33  5.3254015E-01
   7165.67  5.2708516E-01
   7166.00  5.2164603E-01
   7166.33  5.1626884E-01
   7166.67  5.1098994E-01
   7167.00  5.0584602E-01
   7167.33  5.0089796E-01
   7167.67  4.9615776E-01
   7168.00  4.9164855E-01
   7168.33  4.8741913E-01
   7168.67  4.8344580E-01
   7169.00  4.7972850E-01
   7169.33  4.7629109E-01
   7169.67  4.7308690E-01
   7170.00  4.7009911E-01
   7170.33  4.6733509E-01
   7170.67  4.6475943E-01
   7171.00  4.6237243E-01
   7171.33  4.6022037E-01
   7171.67  4.5833460E-01
   7172.00  4.5679945E-01
