    FDMNES
    energy     <xanes>
   7097.00  4.6947625E-03
   7097.33  4.7908826E-03
   7097.67  4.8906351E-03
   7098.00  4.9942256E-03
   7098.33  5.1024278E-03
   7098.67  5.2150164E-03
   7099.00  5.3322610E-03
   7099.33  5.4551319E-03
   7099.67  5.5833869E-03
   7100.00  5.7173884E-03
   7100.33  5.8583823E-03
   7100.67  6.0061171E-03
   7101.00  6.1610959E-03
   7101.33  6.3249647E-03
   7101.67  6.4974835E-03
   7102.00  6.6793777E-03
   7102.33  6.8729025E-03
   7102.67  7.0778784E-03
   7103.00  7.2954024E-03
   7103.33  7.5287125E-03
   7103.67  7.7778060E-03
   7104.00  8.0444471E-03
   7104.33  8.3335778E-03
   7104.67  8.6456634E-03
   7105.00  8.9837737E-03
   7105.33  9.3560963E-03
   7105.67  9.7643496E-03
   7106.00  1.0214467E-02
   7106.33  1.0721630E-02
   7106.67  1.1291202E-02
   7107.00  1.1936430E-02
   7107.33  1.2690352E-02
   7107.67  1.3570716E-02
   7108.00  1.4613924E-02
   7108.33  1.5911305E-02
   7108.67  1.7534989E-02
   7109.00  1.9622955E-02
   7109.33  2.2544615E-02
   7109.67  2.6733557E-02
   7110.00  3.3047838E-02
   7110.33  4.3936149E-02
   7110.67  6.1457325E-02
   7111.00  8.3541069E-02
   7111.33  1.0007929E-01
   7111.67  1.1121530E-01
   7112.00  1.1912634E-01
   7112.33  1.2495347E-01
   7112.67  1.2765570E-01
   7113.00  1.2235497E-01
   7113.33  1.0601564E-01
   7113.67  8.8596923E-02
   7114.00  7.5768518E-02
   7114.33  6.8671100E-02
   7114.67  6.5216395E-02
   7115.00  6.4444860E-02
   7115.33  6.6069587E-02
   7115.67  6.9731545E-02
   7116.00  7.5647307E-02
   7116.33  8.4773100E-02
   7116.67  9.7777339E-02
   7117.00  1.1589037E-01
   7117.33  1.4148454E-01
   7117.67  1.7403357E-01
   7118.00  2.1055716E-01
   7118.33  2.4135776E-01
   7118.67  2.5802047E-01
   7119.00  2.6102573E-01
   7119.33  2.5902234E-01
   7119.67  2.6188922E-01
   7120.00  2.7447641E-01
   7120.33  3.0116476E-01
   7120.67  3.4056369E-01
   7121.00  3.9002110E-01
   7121.33  4.4412938E-01
   7121.67  4.9701785E-01
   7122.00  5.4709323E-01
   7122.33  5.9515544E-01
   7122.67  6.4254310E-01
   7123.00  6.8796040E-01
   7123.33  7.2623727E-01
   7123.67  7.5394515E-01
   7124.00  7.7040822E-01
   7124.33  7.7714301E-01
   7124.67  7.7871887E-01
   7125.00  7.7735208E-01
   7125.33  7.7429897E-01
   7125.67  7.6975922E-01
   7126.00  7.6256786E-01
   7126.33  7.5025871E-01
   7126.67  7.3231612E-01
   7127.00  7.0922869E-01
   7127.33  6.8237391E-01
   7127.67  6.5422491E-01
   7128.00  6.2625734E-01
   7128.33  5.9999428E-01
   7128.67  5.7628050E-01
   7129.00  5.5576650E-01
   7129.33  5.3928233E-01
   7129.67  5.2632643E-01
   7130.00  5.1657806E-01
   7130.33  5.0982793E-01
   7130.67  5.0516174E-01
   7131.00  5.0212730E-01
   7131.33  5.0044847E-01
   7131.67  4.9965943E-01
   7132.00  4.9955392E-01
   7132.33  4.9998155E-01
   7132.67  5.0067451E-01
   7133.00  5.0144659E-01
   7133.33  5.0206649E-01
   7133.67  5.0236158E-01
   7134.00  5.0220883E-01
   7134.33  5.0146221E-01
   7134.67  5.0016434E-01
   7135.00  4.9834333E-01
   7135.33  4.9605240E-01
   7135.67  4.9352964E-01
   7136.00  4.9098925E-01
   7136.33  4.8874990E-01
   7136.67  4.8706321E-01
   7137.00  4.8614420E-01
   7137.33  4.8629607E-01
   7137.67  4.8749139E-01
   7138.00  4.8973167E-01
   7138.33  4.9306360E-01
   7138.67  4.9723343E-01
   7139.00  5.0210217E-01
   7139.33  5.0756437E-01
   7139.67  5.1338229E-01
   7140.00  5.1940802E-01
   7140.33  5.2546503E-01
   7140.67  5.3135164E-01
   7141.00  5.3687819E-01
   7141.33  5.4172928E-01
   7141.67  5.4573242E-01
   7142.00  5.4868747E-01
   7142.33  5.5026244E-01
   7142.67  5.5053431E-01
   7143.00  5.4951070E-01
   7143.33  5.4709905E-01
   7143.67  5.4355729E-01
   7144.00  5.3899722E-01
   7144.33  5.3345048E-01
   7144.67  5.2716579E-01
   7145.00  5.2025347E-01
   7145.33  5.1276425E-01
   7145.67  5.0486506E-01
   7146.00  4.9663989E-01
   7146.33  4.8816106E-01
   7146.67  4.7956399E-01
   7147.00  4.7094573E-01
   7147.33  4.6243636E-01
   7147.67  4.5414294E-01
   7148.00  4.4616337E-01
   7148.33  4.3864950E-01
   7148.67  4.3162689E-01
   7149.00  4.2513952E-01
   7149.33  4.1927897E-01
   7149.67  4.1396642E-01
   7150.00  4.0917274E-01
   7150.33  4.0490392E-01
   7150.67  4.0103813E-01
   7151.00  3.9751870E-01
   7151.33  3.9431854E-01
   7151.67  3.9134890E-01
   7152.00  3.8857423E-01
   7152.33  3.8598557E-01
   7152.67  3.8354252E-01
   7153.00  3.8123485E-01
   7153.33  3.7907445E-01
   7153.67  3.7704674E-01
   7154.00  3.7515614E-01
   7154.33  3.7342628E-01
   7154.67  3.7184387E-01
   7155.00  3.7041105E-01
   7155.33  3.6914583E-01
   7155.67  3.6802532E-01
   7156.00  3.6704277E-01
   7156.33  3.6620321E-01
   7156.67  3.6547705E-01
   7157.00  3.6484922E-01
   7157.33  3.6431104E-01
   7157.67  3.6383841E-01
   7158.00  3.6342598E-01
   7158.33  3.6308650E-01
   7158.67  3.6283113E-01
   7159.00  3.6268872E-01
   7159.33  3.6272452E-01
   7159.67  3.6297124E-01
   7160.00  3.6347487E-01
   7160.33  3.6432352E-01
   7160.67  3.6552094E-01
   7161.00  3.6709564E-01
   7161.33  3.6911656E-01
   7161.67  3.7152774E-01
   7162.00  3.7430925E-01
   7162.33  3.7748789E-01
   7162.67  3.8100441E-01
   7163.00  3.8484137E-01
   7163.33  3.8901125E-01
   7163.67  3.9345012E-01
   7164.00  3.9813390E-01
   7164.33  4.0306136E-01
   7164.67  4.0817699E-01
   7165.00  4.1345633E-01
   7165.33  4.1888827E-01
   7165.67  4.2442847E-01
   7166.00  4.3005366E-01
   7166.33  4.3574404E-01
   7166.67  4.4146514E-01
   7167.00  4.4719371E-01
   7167.33  4.5290070E-01
   7167.67  4.5856219E-01
   7168.00  4.6415600E-01
   7168.33  4.6964588E-01
   7168.67  4.7502025E-01
   7169.00  4.8026054E-01
   7169.33  4.8532741E-01
   7169.67  4.9022137E-01
   7170.00  4.9492686E-01
   7170.33  4.9939884E-01
   7170.67  5.0363887E-01
   7171.00  5.0761593E-01
   7171.33  5.1122724E-01
   7171.67  5.1439559E-01
   7172.00  5.1696519E-01
