    FDMNES
    energy     <xanes>
   7097.00  5.1207788E-03
   7097.33  5.2563665E-03
   7097.67  5.3991394E-03
   7098.00  5.5496697E-03
   7098.33  5.7097680E-03
   7098.67  5.8792183E-03
   7099.00  6.0588385E-03
   7099.33  6.2511145E-03
   7099.67  6.4558772E-03
   7100.00  6.6743347E-03
   7100.33  6.9100138E-03
   7100.67  7.1628743E-03
   7101.00  7.4347691E-03
   7101.33  7.7309007E-03
   7101.67  8.0515361E-03
   7102.00  8.3996485E-03
   7102.33  8.7832793E-03
   7102.67  9.2034047E-03
   7103.00  9.6650630E-03
   7103.33  1.0181414E-02
   7103.67  1.0755098E-02
   7104.00  1.1395248E-02
   7104.33  1.2124991E-02
   7104.67  1.2951076E-02
   7105.00  1.3891531E-02
   7105.33  1.4990903E-02
   7105.67  1.6266985E-02
   7106.00  1.7759583E-02
   7106.33  1.9565631E-02
   7106.67  2.1736677E-02
   7107.00  2.4375165E-02
   7107.33  2.7731243E-02
   7107.67  3.1981213E-02
   7108.00  3.7454190E-02
   7108.33  4.4981611E-02
   7108.67  5.5356038E-02
   7109.00  7.0064585E-02
   7109.33  9.3222108E-02
   7109.67  1.3033030E-01
   7110.00  1.9242128E-01
   7110.33  3.1098545E-01
   7110.67  5.0318412E-01
   7111.00  6.8617450E-01
   7111.33  6.2372584E-01
   7111.67  4.6483412E-01
   7112.00  3.6023659E-01
   7112.33  3.1423999E-01
   7112.67  2.5934014E-01
   7113.00  1.9638911E-01
   7113.33  1.4882459E-01
   7113.67  1.1367398E-01
   7114.00  9.0930072E-02
   7114.33  7.9224912E-02
   7114.67  7.2617467E-02
   7115.00  6.5969500E-02
   7115.33  5.8912134E-02
   7115.67  5.4559161E-02
   7116.00  5.2923840E-02
   7116.33  5.2201322E-02
   7116.67  5.0265469E-02
   7117.00  4.7404536E-02
   7117.33  4.5118848E-02
   7117.67  4.3944003E-02
   7118.00  4.3874578E-02
   7118.33  4.4928457E-02
   7118.67  4.6911761E-02
   7119.00  4.9744022E-02
   7119.33  5.3173784E-02
   7119.67  5.6687855E-02
   7120.00  6.0400535E-02
   7120.33  6.5269327E-02
   7120.67  7.2031112E-02
   7121.00  8.1269590E-02
   7121.33  9.3888084E-02
   7121.67  1.0964095E-01
   7122.00  1.2791610E-01
   7122.33  1.4701792E-01
   7122.67  1.6512571E-01
   7123.00  1.8255289E-01
   7123.33  2.0233658E-01
   7123.67  2.2677141E-01
   7124.00  2.5503758E-01
   7124.33  2.8061340E-01
   7124.67  2.9416757E-01
   7125.00  2.9112196E-01
   7125.33  2.7490046E-01
   7125.67  2.5736990E-01
   7126.00  2.4547145E-01
   7126.33  2.4428242E-01
   7126.67  2.5322595E-01
   7127.00  2.7120113E-01
   7127.33  2.9690499E-01
   7127.67  3.2744782E-01
   7128.00  3.6178382E-01
   7128.33  3.9986930E-01
   7128.67  4.4122453E-01
   7129.00  4.8598527E-01
   7129.33  5.3519558E-01
   7129.67  5.8955314E-01
   7130.00  6.5045606E-01
   7130.33  7.1921096E-01
   7130.67  7.8949432E-01
   7131.00  8.4842843E-01
   7131.33  8.7619321E-01
   7131.67  8.7699572E-01
   7132.00  8.6459807E-01
   7132.33  8.5366336E-01
   7132.67  8.5057100E-01
   7133.00  8.5675646E-01
   7133.33  8.7326488E-01
   7133.67  8.9845148E-01
   7134.00  9.3206097E-01
   7134.33  9.7501782E-01
   7134.67  1.0253995E+00
   7135.00  1.0798480E+00
   7135.33  1.1267812E+00
   7135.67  1.1484207E+00
   7136.00  1.1307720E+00
   7136.33  1.0711038E+00
   7136.67  9.9409294E-01
   7137.00  9.1719225E-01
   7137.33  8.5228295E-01
   7137.67  8.0009628E-01
   7138.00  7.5940473E-01
   7138.33  7.2921864E-01
   7138.67  7.0649385E-01
   7139.00  6.9006144E-01
   7139.33  6.7970634E-01
   7139.67  6.7425505E-01
   7140.00  6.7348914E-01
   7140.33  6.7782352E-01
   7140.67  6.8649235E-01
   7141.00  6.9915097E-01
   7141.33  7.1536428E-01
   7141.67  7.3319263E-01
   7142.00  7.5063484E-01
   7142.33  7.6437485E-01
   7142.67  7.7196321E-01
   7143.00  7.7167125E-01
   7143.33  7.6191910E-01
   7143.67  7.4487561E-01
   7144.00  7.2239549E-01
   7144.33  6.9656956E-01
   7144.67  6.6995300E-01
   7145.00  6.4395783E-01
   7145.33  6.1987959E-01
   7145.67  5.9809263E-01
   7146.00  5.7881773E-01
   7146.33  5.6241725E-01
   7146.67  5.4847240E-01
   7147.00  5.3683181E-01
   7147.33  5.2753475E-01
   7147.67  5.2007218E-01
   7148.00  5.1422440E-01
   7148.33  5.0991999E-01
   7148.67  5.0676220E-01
   7149.00  5.0456350E-01
   7149.33  5.0319582E-01
   7149.67  5.0233850E-01
   7150.00  5.0178457E-01
   7150.33  5.0127838E-01
   7150.67  5.0052976E-01
   7151.00  4.9927796E-01
   7151.33  4.9710309E-01
   7151.67  4.9378454E-01
   7152.00  4.8905465E-01
   7152.33  4.8242689E-01
   7152.67  4.7390886E-01
   7153.00  4.6341305E-01
   7153.33  4.5073183E-01
   7153.67  4.3632201E-01
   7154.00  4.2049069E-01
   7154.33  4.0356949E-01
   7154.67  3.8619340E-01
   7155.00  3.6880790E-01
   7155.33  3.5194030E-01
   7155.67  3.3591396E-01
   7156.00  3.2098740E-01
   7156.33  3.0756970E-01
   7156.67  2.9562744E-01
   7157.00  2.8519559E-01
   7157.33  2.7645709E-01
   7157.67  2.6919474E-01
   7158.00  2.6337654E-01
   7158.33  2.5914160E-01
   7158.67  2.5628303E-01
   7159.00  2.5477989E-01
   7159.33  2.5477523E-01
   7159.67  2.5606791E-01
   7160.00  2.5860485E-01
   7160.33  2.6241812E-01
   7160.67  2.6718745E-01
   7161.00  2.7269875E-01
   7161.33  2.7869835E-01
   7161.67  2.8479743E-01
   7162.00  2.9072599E-01
   7162.33  2.9618104E-01
   7162.67  3.0106149E-01
   7163.00  3.0531629E-01
   7163.33  3.0888976E-01
   7163.67  3.1193682E-01
   7164.00  3.1455034E-01
   7164.33  3.1680539E-01
   7164.67  3.1884971E-01
   7165.00  3.2076416E-01
   7165.33  3.2262034E-01
   7165.67  3.2448701E-01
   7166.00  3.2640611E-01
   7166.33  3.2842634E-01
   7166.67  3.3056347E-01
   7167.00  3.3283367E-01
   7167.33  3.3526826E-01
   7167.67  3.3785682E-01
   7168.00  3.4060190E-01
   7168.33  3.4352145E-01
   7168.67  3.4658982E-01
   7169.00  3.4979708E-01
   7169.33  3.5314061E-01
   7169.67  3.5658042E-01
   7170.00  3.6008895E-01
   7170.33  3.6362945E-01
   7170.67  3.6714686E-01
   7171.00  3.7058370E-01
   7171.33  3.7382177E-01
   7171.67  3.7672566E-01
   7172.00  3.7909855E-01
