    FDMNES
    energy     <xanes>
   7097.00  5.0907760E-03
   7097.33  5.2093568E-03
   7097.67  5.3333140E-03
   7098.00  5.4630138E-03
   7098.33  5.5997052E-03
   7098.67  5.7431377E-03
   7099.00  5.8938118E-03
   7099.33  6.0533645E-03
   7099.67  6.2215413E-03
   7100.00  6.3990450E-03
   7100.33  6.5880787E-03
   7100.67  6.7884108E-03
   7101.00  7.0010594E-03
   7101.33  7.2290849E-03
   7101.67  7.4723375E-03
   7102.00  7.7323494E-03
   7102.33  8.0135360E-03
   7102.67  8.3159613E-03
   7103.00  8.6420389E-03
   7103.33  8.9984430E-03
   7103.67  9.3857536E-03
   7104.00  9.8079926E-03
   7104.33  1.0275857E-02
   7104.67  1.0791173E-02
   7105.00  1.1361140E-02
   7105.33  1.2004248E-02
   7105.67  1.2725490E-02
   7106.00  1.3539031E-02
   7106.33  1.4480231E-02
   7106.67  1.5562961E-02
   7107.00  1.6818959E-02
   7107.33  1.8326254E-02
   7107.67  2.0127862E-02
   7108.00  2.2309838E-02
   7108.33  2.5086012E-02
   7108.67  2.8622824E-02
   7109.00  3.3235877E-02
   7109.33  3.9761273E-02
   7109.67  4.9152500E-02
   7110.00  6.3286149E-02
   7110.33  8.7541036E-02
   7110.67  1.2711759E-01
   7111.00  1.8061630E-01
   7111.33  2.2676896E-01
   7111.67  2.5711718E-01
   7112.00  2.7503476E-01
   7112.33  2.8611802E-01
   7112.67  3.0505058E-01
   7113.00  3.3602938E-01
   7113.33  3.6360297E-01
   7113.67  3.7109688E-01
   7114.00  3.5526335E-01
   7114.33  3.2576891E-01
   7114.67  2.9519738E-01
   7115.00  2.6730951E-01
   7115.33  2.4588357E-01
   7115.67  2.3139336E-01
   7116.00  2.2185930E-01
   7116.33  2.1183590E-01
   7116.67  1.9485374E-01
   7117.00  1.7036967E-01
   7117.33  1.4651877E-01
   7117.67  1.2935540E-01
   7118.00  1.1921687E-01
   7118.33  1.1521603E-01
   7118.67  1.1508531E-01
   7119.00  1.1753102E-01
   7119.33  1.2084709E-01
   7119.67  1.2364155E-01
   7120.00  1.2561922E-01
   7120.33  1.2738672E-01
   7120.67  1.3028378E-01
   7121.00  1.3488011E-01
   7121.33  1.4122279E-01
   7121.67  1.4868914E-01
   7122.00  1.5732166E-01
   7122.33  1.6802929E-01
   7122.67  1.8109296E-01
   7123.00  1.9656849E-01
   7123.33  2.1462156E-01
   7123.67  2.3455657E-01
   7124.00  2.5559496E-01
   7124.33  2.7655090E-01
   7124.67  2.9629210E-01
   7125.00  3.1394029E-01
   7125.33  3.2864002E-01
   7125.67  3.4144831E-01
   7126.00  3.5405946E-01
   7126.33  3.6907124E-01
   7126.67  3.8793268E-01
   7127.00  4.1123572E-01
   7127.33  4.3885062E-01
   7127.67  4.6783950E-01
   7128.00  4.9463652E-01
   7128.33  5.1477912E-01
   7128.67  5.2907497E-01
   7129.00  5.4122670E-01
   7129.33  5.5722904E-01
   7129.67  5.8024170E-01
   7130.00  6.1074194E-01
   7130.33  6.4721094E-01
   7130.67  6.8530315E-01
   7131.00  7.2236043E-01
   7131.33  7.5683305E-01
   7131.67  7.8904131E-01
   7132.00  8.1887865E-01
   7132.33  8.4499665E-01
   7132.67  8.6619544E-01
   7133.00  8.8084573E-01
   7133.33  8.8631173E-01
   7133.67  8.8321687E-01
   7134.00  8.7261397E-01
   7134.33  8.5616323E-01
   7134.67  8.3678796E-01
   7135.00  8.1576879E-01
   7135.33  7.9389495E-01
   7135.67  7.7206255E-01
   7136.00  7.5107630E-01
   7136.33  7.3204294E-01
   7136.67  7.1533544E-01
   7137.00  7.0116114E-01
   7137.33  6.8982806E-01
   7137.67  6.8087844E-01
   7138.00  6.7413320E-01
   7138.33  6.6953125E-01
   7138.67  6.6637943E-01
   7139.00  6.6413488E-01
   7139.33  6.6204354E-01
   7139.67  6.5930717E-01
   7140.00  6.5538708E-01
   7140.33  6.4974905E-01
   7140.67  6.4259777E-01
   7141.00  6.3418542E-01
   7141.33  6.2486785E-01
   7141.67  6.1525377E-01
   7142.00  6.0573317E-01
   7142.33  5.9666523E-01
   7142.67  5.8809092E-01
   7143.00  5.7991484E-01
   7143.33  5.7191689E-01
   7143.67  5.6382376E-01
   7144.00  5.5549866E-01
   7144.33  5.4689666E-01
   7144.67  5.3817333E-01
   7145.00  5.2950021E-01
   7145.33  5.2112215E-01
   7145.67  5.1318876E-01
   7146.00  5.0581930E-01
   7146.33  4.9919486E-01
   7146.67  4.9329966E-01
   7147.00  4.8817221E-01
   7147.33  4.8392840E-01
   7147.67  4.8047088E-01
   7148.00  4.7780225E-01
   7148.33  4.7602416E-01
   7148.67  4.7503126E-01
   7149.00  4.7480681E-01
   7149.33  4.7540709E-01
   7149.67  4.7669432E-01
   7150.00  4.7862218E-01
   7150.33  4.8119750E-01
   7150.67  4.8426805E-01
   7151.00  4.8774943E-01
   7151.33  4.9155833E-01
   7151.67  4.9551439E-01
   7152.00  4.9947587E-01
   7152.33  5.0324032E-01
   7152.67  5.0664299E-01
   7153.00  5.0952976E-01
   7153.33  5.1165981E-01
   7153.67  5.1300268E-01
   7154.00  5.1350615E-01
   7154.33  5.1306721E-01
   7154.67  5.1185951E-01
   7155.00  5.0999089E-01
   7155.33  5.0757146E-01
   7155.67  5.0486155E-01
   7156.00  5.0203197E-01
   7156.33  4.9926420E-01
   7156.67  4.9668127E-01
   7157.00  4.9435187E-01
   7157.33  4.9234354E-01
   7157.67  4.9060975E-01
   7158.00  4.8911715E-01
   7158.33  4.8783397E-01
   7158.67  4.8667445E-01
   7159.00  4.8558498E-01
   7159.33  4.8450851E-01
   7159.67  4.8339021E-01
   7160.00  4.8218959E-01
   7160.33  4.8085455E-01
   7160.67  4.7937832E-01
   7161.00  4.7775290E-01
   7161.33  4.7596050E-01
   7161.67  4.7403029E-01
   7162.00  4.7197933E-01
   7162.33  4.6982322E-01
   7162.67  4.6760999E-01
   7163.00  4.6538084E-01
   7163.33  4.6319324E-01
   7163.67  4.6109503E-01
   7164.00  4.5912896E-01
   7164.33  4.5736327E-01
   7164.67  4.5581505E-01
   7165.00  4.5451109E-01
   7165.33  4.5350717E-01
   7165.67  4.5278328E-01
   7166.00  4.5234354E-01
   7166.33  4.5221985E-01
   7166.67  4.5236903E-01
   7167.00  4.5278457E-01
   7167.33  4.5348702E-01
   7167.67  4.5442637E-01
   7168.00  4.5558545E-01
   7168.33  4.5696753E-01
   7168.67  4.5852374E-01
   7169.00  4.6023038E-01
   7169.33  4.6207022E-01
   7169.67  4.6399218E-01
   7170.00  4.6596265E-01
   7170.33  4.6794144E-01
   7170.67  4.6988428E-01
   7171.00  4.7175065E-01
   7171.33  4.7346705E-01
   7171.67  4.7497141E-01
   7172.00  4.7617566E-01
