    FDMNES
    energy     <xanes>
   7097.00  4.0250014E-03
   7097.33  4.1078477E-03
   7097.67  4.1940999E-03
   7098.00  4.2839832E-03
   7098.33  4.3782781E-03
   7098.67  4.4768192E-03
   7099.00  4.5799162E-03
   7099.33  4.6885923E-03
   7099.67  4.8026837E-03
   7100.00  4.9226299E-03
   7100.33  5.0498143E-03
   7100.67  5.1840954E-03
   7101.00  5.3261199E-03
   7101.33  5.4778276E-03
   7101.67  5.6391460E-03
   7102.00  5.8110685E-03
   7102.33  5.9964375E-03
   7102.67  6.1953533E-03
   7103.00  6.4094231E-03
   7103.33  6.6430419E-03
   7103.67  6.8967252E-03
   7104.00  7.1732413E-03
   7104.33  7.4798562E-03
   7104.67  7.8180991E-03
   7105.00  8.1931296E-03
   7105.33  8.6180236E-03
   7105.67  9.0969439E-03
   7106.00  9.6405370E-03
   7106.33  1.0275105E-02
   7106.67  1.1012415E-02
   7107.00  1.1877673E-02
   7107.33  1.2932528E-02
   7107.67  1.4214617E-02
   7108.00  1.5796584E-02
   7108.33  1.7859243E-02
   7108.67  2.0553972E-02
   7109.00  2.4164173E-02
   7109.33  2.9446233E-02
   7109.67  3.7300240E-02
   7110.00  4.9497419E-02
   7110.33  7.1154095E-02
   7110.67  1.0740345E-01
   7111.00  1.5742625E-01
   7111.33  2.0071991E-01
   7111.67  2.2241468E-01
   7112.00  2.2268272E-01
   7112.33  2.0668194E-01
   7112.67  1.7974234E-01
   7113.00  1.4770690E-01
   7113.33  1.1850228E-01
   7113.67  9.4757945E-02
   7114.00  7.6928060E-02
   7114.33  6.5164521E-02
   7114.67  5.7800552E-02
   7115.00  5.3539171E-02
   7115.33  5.0083810E-02
   7115.67  4.6029358E-02
   7116.00  4.2356030E-02
   7116.33  4.0159948E-02
   7116.67  3.9155587E-02
   7117.00  3.9064444E-02
   7117.33  3.9697707E-02
   7117.67  4.0703780E-02
   7118.00  4.1790637E-02
   7118.33  4.2595193E-02
   7118.67  4.3039191E-02
   7119.00  4.3262782E-02
   7119.33  4.3546902E-02
   7119.67  4.4121185E-02
   7120.00  4.5130590E-02
   7120.33  4.6785131E-02
   7120.67  4.9166921E-02
   7121.00  5.2452937E-02
   7121.33  5.7085366E-02
   7121.67  6.3334882E-02
   7122.00  7.1690550E-02
   7122.33  8.3216523E-02
   7122.67  9.8253053E-02
   7123.00  1.1705441E-01
   7123.33  1.3967410E-01
   7123.67  1.6524846E-01
   7124.00  1.9400975E-01
   7124.33  2.2609085E-01
   7124.67  2.5840230E-01
   7125.00  2.8701211E-01
   7125.33  3.0741932E-01
   7125.67  3.1986369E-01
   7126.00  3.2550412E-01
   7126.33  3.2608315E-01
   7126.67  3.2533304E-01
   7127.00  3.2648696E-01
   7127.33  3.3372973E-01
   7127.67  3.4908500E-01
   7128.00  3.7444510E-01
   7128.33  4.1266933E-01
   7128.67  4.6179650E-01
   7129.00  5.1875741E-01
   7129.33  5.7695935E-01
   7129.67  6.2932611E-01
   7130.00  6.7362456E-01
   7130.33  7.1161597E-01
   7130.67  7.4733921E-01
   7131.00  7.8121391E-01
   7131.33  8.1075994E-01
   7131.67  8.3471344E-01
   7132.00  8.5358374E-01
   7132.33  8.6945542E-01
   7132.67  8.8466457E-01
   7133.00  8.9939798E-01
   7133.33  9.1243167E-01
   7133.67  9.2291931E-01
   7134.00  9.3055653E-01
   7134.33  9.3514449E-01
   7134.67  9.3714555E-01
   7135.00  9.3632022E-01
   7135.33  9.3146083E-01
   7135.67  9.2201157E-01
   7136.00  9.0731700E-01
   7136.33  8.8672052E-01
   7136.67  8.6196116E-01
   7137.00  8.3469098E-01
   7137.33  8.0711632E-01
   7137.67  7.8128018E-01
   7138.00  7.5845440E-01
   7138.33  7.4005768E-01
   7138.67  7.2604612E-01
   7139.00  7.1652722E-01
   7139.33  7.1193081E-01
   7139.67  7.1135794E-01
   7140.00  7.1431482E-01
   7140.33  7.2034180E-01
   7140.67  7.2809251E-01
   7141.00  7.3660800E-01
   7141.33  7.4472926E-01
   7141.67  7.5151146E-01
   7142.00  7.5628947E-01
   7142.33  7.5824990E-01
   7142.67  7.5749777E-01
   7143.00  7.5404762E-01
   7143.33  7.4776860E-01
   7143.67  7.3927857E-01
   7144.00  7.2889015E-01
   7144.33  7.1679621E-01
   7144.67  7.0355710E-01
   7145.00  6.8946570E-01
   7145.33  6.7475308E-01
   7145.67  6.5973827E-01
   7146.00  6.4459351E-01
   7146.33  6.2947200E-01
   7146.67  6.1447274E-01
   7147.00  5.9965057E-01
   7147.33  5.8506866E-01
   7147.67  5.7071800E-01
   7148.00  5.5660351E-01
   7148.33  5.4275380E-01
   7148.67  5.2913787E-01
   7149.00  5.1575926E-01
   7149.33  5.0267062E-01
   7149.67  4.8989568E-01
   7150.00  4.7751614E-01
   7150.33  4.6570662E-01
   7150.67  4.5452840E-01
   7151.00  4.4410617E-01
   7151.33  4.3470179E-01
   7151.67  4.2632750E-01
   7152.00  4.1905343E-01
   7152.33  4.1304058E-01
   7152.67  4.0809592E-01
   7153.00  4.0412284E-01
   7153.33  4.0106348E-01
   7153.67  3.9861689E-01
   7154.00  3.9659250E-01
   7154.33  3.9478673E-01
   7154.67  3.9295843E-01
   7155.00  3.9094313E-01
   7155.33  3.8854231E-01
   7155.67  3.8568644E-01
   7156.00  3.8232309E-01
   7156.33  3.7839023E-01
   7156.67  3.7401454E-01
   7157.00  3.6929431E-01
   7157.33  3.6436467E-01
   7157.67  3.5944525E-01
   7158.00  3.5472446E-01
   7158.33  3.5047522E-01
   7158.67  3.4682422E-01
   7159.00  3.4383559E-01
   7159.33  3.4144981E-01
   7159.67  3.3916444E-01
   7160.00  3.3635424E-01
   7160.33  3.3201067E-01
   7160.67  3.2571756E-01
   7161.00  3.1742546E-01
   7161.33  3.0741919E-01
   7161.67  2.9665729E-01
   7162.00  2.8579186E-01
   7162.33  2.7544502E-01
   7162.67  2.6586810E-01
   7163.00  2.5718707E-01
   7163.33  2.4958147E-01
   7163.67  2.4294699E-01
   7164.00  2.3728400E-01
   7164.33  2.3271032E-01
   7164.67  2.2910421E-01
   7165.00  2.2647086E-01
   7165.33  2.2494635E-01
   7165.67  2.2442528E-01
   7166.00  2.2492432E-01
   7166.33  2.2659084E-01
   7166.67  2.2930766E-01
   7167.00  2.3307912E-01
   7167.33  2.3803192E-01
   7167.67  2.4401771E-01
   7168.00  2.5100960E-01
   7168.33  2.5907747E-01
   7168.67  2.6803011E-01
   7169.00  2.7778997E-01
   7169.33  2.8833756E-01
   7169.67  2.9946006E-01
   7170.00  3.1103444E-01
   7170.33  3.2293217E-01
   7170.67  3.3491738E-01
   7171.00  3.4676913E-01
   7171.33  3.5805378E-01
   7171.67  3.6823113E-01
   7172.00  3.7655555E-01
