    FDMNES
    energy     <xanes>
   7097.00  4.3088607E-03
   7097.33  4.4038919E-03
   7097.67  4.5031519E-03
   7098.00  4.6069382E-03
   7098.33  4.7162507E-03
   7098.67  4.8309084E-03
   7099.00  4.9513261E-03
   7099.33  5.0788344E-03
   7099.67  5.2132618E-03
   7100.00  5.3552048E-03
   7100.33  5.5064909E-03
   7100.67  5.6669900E-03
   7101.00  5.8375917E-03
   7101.33  6.0209020E-03
   7101.67  6.2169023E-03
   7102.00  6.4269788E-03
   7102.33  6.6550171E-03
   7102.67  6.9012678E-03
   7103.00  7.1680061E-03
   7103.33  7.4613506E-03
   7103.67  7.7821889E-03
   7104.00  8.1345000E-03
   7104.33  8.5285929E-03
   7104.67  8.9669068E-03
   7105.00  9.4569787E-03
   7105.33  1.0017732E-02
   7105.67  1.0655653E-02
   7106.00  1.1386568E-02
   7106.33  1.2249341E-02
   7106.67  1.3262243E-02
   7107.00  1.4463440E-02
   7107.33  1.5946033E-02
   7107.67  1.7768793E-02
   7108.00  2.0043799E-02
   7108.33  2.3049993E-02
   7108.67  2.7025635E-02
   7109.00  3.2414637E-02
   7109.33  4.0401910E-02
   7109.67  5.2406465E-02
   7110.00  7.1218782E-02
   7110.33  1.0501287E-01
   7110.67  1.6328849E-01
   7111.00  2.5037200E-01
   7111.33  3.3445500E-01
   7111.67  3.5351754E-01
   7112.00  2.9314085E-01
   7112.33  2.1491707E-01
   7112.67  1.5930005E-01
   7113.00  1.2475630E-01
   7113.33  1.0504773E-01
   7113.67  9.3762086E-02
   7114.00  8.8249451E-02
   7114.33  8.3990344E-02
   7114.67  7.7916749E-02
   7115.00  7.1753172E-02
   7115.33  6.5381375E-02
   7115.67  5.7897298E-02
   7116.00  5.0850992E-02
   7116.33  4.5900982E-02
   7116.67  4.2824349E-02
   7117.00  4.1222195E-02
   7117.33  4.0754796E-02
   7117.67  4.0923346E-02
   7118.00  4.1484779E-02
   7118.33  4.2210353E-02
   7118.67  4.2835859E-02
   7119.00  4.3256070E-02
   7119.33  4.3626882E-02
   7119.67  4.4334810E-02
   7120.00  4.5696859E-02
   7120.33  4.8087637E-02
   7120.67  5.1598544E-02
   7121.00  5.6428199E-02
   7121.33  6.3091156E-02
   7121.67  7.1827455E-02
   7122.00  8.3169759E-02
   7122.33  9.8364062E-02
   7122.67  1.1781587E-01
   7123.00  1.4181526E-01
   7123.33  1.6994711E-01
   7123.67  1.9939469E-01
   7124.00  2.2753463E-01
   7124.33  2.5253779E-01
   7124.67  2.7541314E-01
   7125.00  2.9752560E-01
   7125.33  3.1925135E-01
   7125.67  3.3865999E-01
   7126.00  3.5751830E-01
   7126.33  3.8396227E-01
   7126.67  4.2015794E-01
   7127.00  4.6216624E-01
   7127.33  5.0344771E-01
   7127.67  5.3990646E-01
   7128.00  5.6939249E-01
   7128.33  5.9030956E-01
   7128.67  6.0527044E-01
   7129.00  6.1647050E-01
   7129.33  6.2549032E-01
   7129.67  6.3233780E-01
   7130.00  6.3506374E-01
   7130.33  6.3101240E-01
   7130.67  6.2298376E-01
   7131.00  6.1652254E-01
   7131.33  6.1989124E-01
   7131.67  6.3490403E-01
   7132.00  6.5984151E-01
   7132.33  6.9124638E-01
   7132.67  7.2439154E-01
   7133.00  7.5687748E-01
   7133.33  7.8699998E-01
   7133.67  8.1452375E-01
   7134.00  8.3913259E-01
   7134.33  8.5960966E-01
   7134.67  8.7607119E-01
   7135.00  8.8966169E-01
   7135.33  9.0162769E-01
   7135.67  9.1096475E-01
   7136.00  9.1547969E-01
   7136.33  9.1335223E-01
   7136.67  9.0630070E-01
   7137.00  8.9584289E-01
   7137.33  8.8320676E-01
   7137.67  8.6938264E-01
   7138.00  8.5450977E-01
   7138.33  8.3833822E-01
   7138.67  8.2095903E-01
   7139.00  8.0255188E-01
   7139.33  7.8357393E-01
   7139.67  7.6483490E-01
   7140.00  7.4700290E-01
   7140.33  7.3089459E-01
   7140.67  7.1666046E-01
   7141.00  7.0434717E-01
   7141.33  6.9399005E-01
   7141.67  6.8502640E-01
   7142.00  6.7709825E-01
   7142.33  6.6984840E-01
   7142.67  6.6279210E-01
   7143.00  6.5561828E-01
   7143.33  6.4797987E-01
   7143.67  6.3974131E-01
   7144.00  6.3086947E-01
   7144.33  6.2139221E-01
   7144.67  6.1156664E-01
   7145.00  6.0162622E-01
   7145.33  5.9192568E-01
   7145.67  5.8278753E-01
   7146.00  5.7450033E-01
   7146.33  5.6750191E-01
   7146.67  5.6186951E-01
   7147.00  5.5770420E-01
   7147.33  5.5516030E-01
   7147.67  5.5385410E-01
   7148.00  5.5348102E-01
   7148.33  5.5365170E-01
   7148.67  5.5384882E-01
   7149.00  5.5374753E-01
   7149.33  5.5302084E-01
   7149.67  5.5162931E-01
   7150.00  5.4955986E-01
   7150.33  5.4675088E-01
   7150.67  5.4332300E-01
   7151.00  5.3930500E-01
   7151.33  5.3463633E-01
   7151.67  5.2937618E-01
   7152.00  5.2349703E-01
   7152.33  5.1687798E-01
   7152.67  5.0956172E-01
   7153.00  5.0150947E-01
   7153.33  4.9258706E-01
   7153.67  4.8288948E-01
   7154.00  4.7245698E-01
   7154.33  4.6131897E-01
   7154.67  4.4972136E-01
   7155.00  4.3783999E-01
   7155.33  4.2589710E-01
   7155.67  4.1413580E-01
   7156.00  4.0274796E-01
   7156.33  3.9199933E-01
   7156.67  3.8197250E-01
   7157.00  3.7276245E-01
   7157.33  3.6454688E-01
   7157.67  3.5724068E-01
   7158.00  3.5083783E-01
   7158.33  3.4541416E-01
   7158.67  3.4080862E-01
   7159.00  3.3696815E-01
   7159.33  3.3391604E-01
   7159.67  3.3150407E-01
   7160.00  3.2968639E-01
   7160.33  3.2848560E-01
   7160.67  3.2779311E-01
   7161.00  3.2757464E-01
   7161.33  3.2783543E-01
   7161.67  3.2845674E-01
   7162.00  3.2936370E-01
   7162.33  3.3047106E-01
   7162.67  3.3163571E-01
   7163.00  3.3275584E-01
   7163.33  3.3371624E-01
   7163.67  3.3447721E-01
   7164.00  3.3502877E-01
   7164.33  3.3538189E-01
   7164.67  3.3562878E-01
   7165.00  3.3584594E-01
   7165.33  3.3613272E-01
   7165.67  3.3656224E-01
   7166.00  3.3718861E-01
   7166.33  3.3808524E-01
   7166.67  3.3924581E-01
   7167.00  3.4067757E-01
   7167.33  3.4241175E-01
   7167.67  3.4440418E-01
   7168.00  3.4664107E-01
   7168.33  3.4913138E-01
   7168.67  3.5182533E-01
   7169.00  3.5470203E-01
   7169.33  3.5775548E-01
   7169.67  3.6094113E-01
   7170.00  3.6423787E-01
   7170.33  3.6762883E-01
   7170.67  3.7106628E-01
   7171.00  3.7450106E-01
   7171.33  3.7782204E-01
   7171.67  3.8085874E-01
   7172.00  3.8336865E-01
