    FDMNES
    energy     <xanes>
   7097.00  5.3340043E-03
   7097.33  5.4700350E-03
   7097.67  5.6126629E-03
   7098.00  5.7623593E-03
   7098.33  5.9206929E-03
   7098.67  6.0873856E-03
   7099.00  6.2630879E-03
   7099.33  6.4498797E-03
   7099.67  6.6474869E-03
   7100.00  6.8568325E-03
   7100.33  7.0807509E-03
   7100.67  7.3190117E-03
   7101.00  7.5729676E-03
   7101.33  7.8466085E-03
   7101.67  8.1398352E-03
   7102.00  8.4547088E-03
   7102.33  8.7970695E-03
   7102.67  9.1671437E-03
   7103.00  9.5682222E-03
   7103.33  1.0009274E-02
   7103.67  1.0491299E-02
   7104.00  1.1019864E-02
   7104.33  1.1609602E-02
   7104.67  1.2263376E-02
   7105.00  1.2991334E-02
   7105.33  1.3819284E-02
   7105.67  1.4754871E-02
   7106.00  1.5818493E-02
   7106.33  1.7060743E-02
   7106.67  1.8502905E-02
   7107.00  2.0191963E-02
   7107.33  2.2243175E-02
   7107.67  2.4723950E-02
   7108.00  2.7766705E-02
   7108.33  3.1701874E-02
   7108.67  3.6801557E-02
   7109.00  4.3580700E-02
   7109.33  5.3423884E-02
   7109.67  6.8000486E-02
   7110.00  9.0617620E-02
   7110.33  1.3060779E-01
   7110.67  1.9410543E-01
   7111.00  2.6539491E-01
   7111.33  3.0420033E-01
   7111.67  3.4004334E-01
   7112.00  3.7598446E-01
   7112.33  3.9353359E-01
   7112.67  3.9673900E-01
   7113.00  4.0641311E-01
   7113.33  4.3561678E-01
   7113.67  4.5937506E-01
   7114.00  4.6795561E-01
   7114.33  4.6036930E-01
   7114.67  4.1867072E-01
   7115.00  3.4666428E-01
   7115.33  2.7741997E-01
   7115.67  2.2497700E-01
   7116.00  1.8846577E-01
   7116.33  1.6572913E-01
   7116.67  1.5181745E-01
   7117.00  1.4404501E-01
   7117.33  1.4013301E-01
   7117.67  1.3770780E-01
   7118.00  1.3487683E-01
   7118.33  1.2931629E-01
   7118.67  1.2205331E-01
   7119.00  1.1508371E-01
   7119.33  1.0998607E-01
   7119.67  1.0669732E-01
   7120.00  1.0513654E-01
   7120.33  1.0555842E-01
   7120.67  1.0767228E-01
   7121.00  1.1116285E-01
   7121.33  1.1594397E-01
   7121.67  1.2224162E-01
   7122.00  1.3060514E-01
   7122.33  1.4201259E-01
   7122.67  1.5674257E-01
   7123.00  1.7515807E-01
   7123.33  1.9660645E-01
   7123.67  2.1639099E-01
   7124.00  2.3085553E-01
   7124.33  2.4226694E-01
   7124.67  2.5534952E-01
   7125.00  2.7066446E-01
   7125.33  2.8730566E-01
   7125.67  3.0413039E-01
   7126.00  3.2065136E-01
   7126.33  3.3709776E-01
   7126.67  3.5486801E-01
   7127.00  3.7564823E-01
   7127.33  4.0185066E-01
   7127.67  4.3409570E-01
   7128.00  4.7274859E-01
   7128.33  5.1770687E-01
   7128.67  5.6564232E-01
   7129.00  6.1277923E-01
   7129.33  6.5331578E-01
   7129.67  6.8397077E-01
   7130.00  7.0366398E-01
   7130.33  7.1429795E-01
   7130.67  7.2271079E-01
   7131.00  7.3281710E-01
   7131.33  7.4612952E-01
   7131.67  7.6153654E-01
   7132.00  7.7909427E-01
   7132.33  8.0113311E-01
   7132.67  8.2940670E-01
   7133.00  8.6450709E-01
   7133.33  9.0507362E-01
   7133.67  9.4591421E-01
   7134.00  9.8196239E-01
   7134.33  1.0063671E+00
   7134.67  1.0172707E+00
   7135.00  1.0150919E+00
   7135.33  1.0022962E+00
   7135.67  9.8493589E-01
   7136.00  9.6633603E-01
   7136.33  9.4831129E-01
   7136.67  9.3067943E-01
   7137.00  9.1276724E-01
   7137.33  8.9394998E-01
   7137.67  8.7441562E-01
   7138.00  8.5459144E-01
   7138.33  8.3505034E-01
   7138.67  8.1611970E-01
   7139.00  7.9793050E-01
   7139.33  7.8057754E-01
   7139.67  7.6388610E-01
   7140.00  7.4776450E-01
   7140.33  7.3216249E-01
   7140.67  7.1692397E-01
   7141.00  7.0197759E-01
   7141.33  6.8729409E-01
   7141.67  6.7282950E-01
   7142.00  6.5860178E-01
   7142.33  6.4469544E-01
   7142.67  6.3115332E-01
   7143.00  6.1805325E-01
   7143.33  6.0553658E-01
   7143.67  5.9357527E-01
   7144.00  5.8215616E-01
   7144.33  5.7127086E-01
   7144.67  5.6075644E-01
   7145.00  5.5051249E-01
   7145.33  5.4044534E-01
   7145.67  5.3044951E-01
   7146.00  5.2048991E-01
   7146.33  5.1058496E-01
   7146.67  5.0079441E-01
   7147.00  4.9120510E-01
   7147.33  4.8196974E-01
   7147.67  4.7315172E-01
   7148.00  4.6481608E-01
   7148.33  4.5706655E-01
   7148.67  4.4983533E-01
   7149.00  4.4309067E-01
   7149.33  4.3682072E-01
   7149.67  4.3088834E-01
   7150.00  4.2521284E-01
   7150.33  4.1971688E-01
   7150.67  4.1428629E-01
   7151.00  4.0884848E-01
   7151.33  4.0333044E-01
   7151.67  3.9770424E-01
   7152.00  3.9195064E-01
   7152.33  3.8604443E-01
   7152.67  3.8001532E-01
   7153.00  3.7388971E-01
   7153.33  3.6770428E-01
   7153.67  3.6151692E-01
   7154.00  3.5537335E-01
   7154.33  3.4933417E-01
   7154.67  3.4342833E-01
   7155.00  3.3768245E-01
   7155.33  3.3213948E-01
   7155.67  3.2678811E-01
   7156.00  3.2163409E-01
   7156.33  3.1670849E-01
   7156.67  3.1199402E-01
   7157.00  3.0750177E-01
   7157.33  3.0328015E-01
   7157.67  2.9932258E-01
   7158.00  2.9565168E-01
   7158.33  2.9233332E-01
   7158.67  2.8935340E-01
   7159.00  2.8673045E-01
   7159.33  2.8452603E-01
   7159.67  2.8270051E-01
   7160.00  2.8125413E-01
   7160.33  2.8022926E-01
   7160.67  2.7957181E-01
   7161.00  2.7927535E-01
   7161.33  2.7937831E-01
   7161.67  2.7983336E-01
   7162.00  2.8064060E-01
   7162.33  2.8184296E-01
   7162.67  2.8338717E-01
   7163.00  2.8526310E-01
   7163.33  2.8750381E-01
   7163.67  2.9005779E-01
   7164.00  2.9290922E-01
   7164.33  2.9606669E-01
   7164.67  2.9946909E-01
   7165.00  3.0309387E-01
   7165.33  3.0693906E-01
   7165.67  3.1095384E-01
   7166.00  3.1511609E-01
   7166.33  3.1941633E-01
   7166.67  3.2381517E-01
   7167.00  3.2829233E-01
   7167.33  3.3283177E-01
   7167.67  3.3740387E-01
   7168.00  3.4198939E-01
   7168.33  3.4656710E-01
   7168.67  3.5111964E-01
   7169.00  3.5563249E-01
   7169.33  3.6008300E-01
   7169.67  3.6446293E-01
   7170.00  3.6875836E-01
   7170.33  3.7293666E-01
   7170.67  3.7698265E-01
   7171.00  3.8085843E-01
   7171.33  3.8445569E-01
   7171.67  3.8765876E-01
   7172.00  3.9027269E-01
