    FDMNES
    energy     <xanes>
   7097.00  5.3274872E-03
   7097.33  5.4617794E-03
   7097.67  5.6024816E-03
   7098.00  5.7500437E-03
   7098.33  5.9059764E-03
   7098.67  6.0699979E-03
   7099.00  6.2427260E-03
   7099.33  6.4261530E-03
   7099.67  6.6199963E-03
   7100.00  6.8251268E-03
   7100.33  7.0442430E-03
   7100.67  7.2770952E-03
   7101.00  7.5249511E-03
   7101.33  7.7915811E-03
   7101.67  8.0768444E-03
   7102.00  8.3826554E-03
   7102.33  8.7144842E-03
   7102.67  9.0724655E-03
   7103.00  9.4596230E-03
   7103.33  9.8842650E-03
   7103.67  1.0347181E-02
   7104.00  1.0853417E-02
   7104.33  1.1416333E-02
   7104.67  1.2038285E-02
   7105.00  1.2728300E-02
   7105.33  1.3509495E-02
   7105.67  1.4388158E-02
   7106.00  1.5381983E-02
   7106.33  1.6535054E-02
   7106.67  1.7864523E-02
   7107.00  1.9409660E-02
   7107.33  2.1266809E-02
   7107.67  2.3488039E-02
   7108.00  2.6177756E-02
   7108.33  2.9594280E-02
   7108.67  3.3932495E-02
   7109.00  3.9561281E-02
   7109.33  4.7447152E-02
   7109.67  5.8648619E-02
   7110.00  7.5234090E-02
   7110.33  1.0314913E-01
   7110.67  1.4908397E-01
   7111.00  2.1678998E-01
   7111.33  2.9018929E-01
   7111.67  3.4175657E-01
   7112.00  3.6822361E-01
   7112.33  3.7689192E-01
   7112.67  4.0052149E-01
   7113.00  4.6038092E-01
   7113.33  5.3341700E-01
   7113.67  5.7083293E-01
   7114.00  5.3554565E-01
   7114.33  4.3051479E-01
   7114.67  3.2491952E-01
   7115.00  2.4541288E-01
   7115.33  1.9503224E-01
   7115.67  1.6231786E-01
   7116.00  1.4164310E-01
   7116.33  1.2973679E-01
   7116.67  1.2321496E-01
   7117.00  1.2117643E-01
   7117.33  1.2303290E-01
   7117.67  1.2680356E-01
   7118.00  1.3153696E-01
   7118.33  1.3460279E-01
   7118.67  1.3282002E-01
   7119.00  1.2804268E-01
   7119.33  1.2581855E-01
   7119.67  1.2816008E-01
   7120.00  1.3441054E-01
   7120.33  1.4183126E-01
   7120.67  1.4699293E-01
   7121.00  1.5000246E-01
   7121.33  1.5466824E-01
   7121.67  1.6360340E-01
   7122.00  1.7731815E-01
   7122.33  1.9595411E-01
   7122.67  2.1823432E-01
   7123.00  2.4330010E-01
   7123.33  2.7007914E-01
   7123.67  2.9709240E-01
   7124.00  3.2346073E-01
   7124.33  3.4836890E-01
   7124.67  3.7155022E-01
   7125.00  3.9266045E-01
   7125.33  4.1076880E-01
   7125.67  4.2528336E-01
   7126.00  4.3573272E-01
   7126.33  4.4297408E-01
   7126.67  4.5080710E-01
   7127.00  4.6263445E-01
   7127.33  4.8166434E-01
   7127.67  5.0721498E-01
   7128.00  5.3813813E-01
   7128.33  5.7318653E-01
   7128.67  6.1026873E-01
   7129.00  6.4801262E-01
   7129.33  6.8464955E-01
   7129.67  7.1841665E-01
   7130.00  7.4738053E-01
   7130.33  7.6857746E-01
   7130.67  7.8216923E-01
   7131.00  7.8935337E-01
   7131.33  7.9266009E-01
   7131.67  7.9557275E-01
   7132.00  7.9961256E-01
   7132.33  8.0487023E-01
   7132.67  8.0971265E-01
   7133.00  8.1259538E-01
   7133.33  8.1203411E-01
   7133.67  8.0838945E-01
   7134.00  8.0232327E-01
   7134.33  7.9490210E-01
   7134.67  7.8762952E-01
   7135.00  7.8143864E-01
   7135.33  7.7694476E-01
   7135.67  7.7353369E-01
   7136.00  7.7033967E-01
   7136.33  7.6617294E-01
   7136.67  7.6052277E-01
   7137.00  7.5343639E-01
   7137.33  7.4538999E-01
   7137.67  7.3725576E-01
   7138.00  7.2957314E-01
   7138.33  7.2279870E-01
   7138.67  7.1688638E-01
   7139.00  7.1169078E-01
   7139.33  7.0693714E-01
   7139.67  7.0214496E-01
   7140.00  6.9689013E-01
   7140.33  6.9051756E-01
   7140.67  6.8266044E-01
   7141.00  6.7302198E-01
   7141.33  6.6127986E-01
   7141.67  6.4792691E-01
   7142.00  6.3344766E-01
   7142.33  6.1853694E-01
   7142.67  6.0398222E-01
   7143.00  5.9027590E-01
   7143.33  5.7788378E-01
   7143.67  5.6671067E-01
   7144.00  5.5664016E-01
   7144.33  5.4754752E-01
   7144.67  5.3905801E-01
   7145.00  5.3095577E-01
   7145.33  5.2305356E-01
   7145.67  5.1518083E-01
   7146.00  5.0726233E-01
   7146.33  4.9925320E-01
   7146.67  4.9117170E-01
   7147.00  4.8304599E-01
   7147.33  4.7491648E-01
   7147.67  4.6682120E-01
   7148.00  4.5878742E-01
   7148.33  4.5085401E-01
   7148.67  4.4303686E-01
   7149.00  4.3536121E-01
   7149.33  4.2788085E-01
   7149.67  4.2060844E-01
   7150.00  4.1357373E-01
   7150.33  4.0684304E-01
   7150.67  4.0041479E-01
   7151.00  3.9431641E-01
   7151.33  3.8861326E-01
   7151.67  3.8327287E-01
   7152.00  3.7830082E-01
   7152.33  3.7374510E-01
   7152.67  3.6955636E-01
   7153.00  3.6572888E-01
   7153.33  3.6229612E-01
   7153.67  3.5919928E-01
   7154.00  3.5642142E-01
   7154.33  3.5397339E-01
   7154.67  3.5178444E-01
   7155.00  3.4981727E-01
   7155.33  3.4803961E-01
   7155.67  3.4636891E-01
   7156.00  3.4474886E-01
   7156.33  3.4311219E-01
   7156.67  3.4140107E-01
   7157.00  3.3957280E-01
   7157.33  3.3757079E-01
   7157.67  3.3539192E-01
   7158.00  3.3302924E-01
   7158.33  3.3046760E-01
   7158.67  3.2775298E-01
   7159.00  3.2491968E-01
   7159.33  3.2201734E-01
   7159.67  3.1912877E-01
   7160.00  3.1632900E-01
   7160.33  3.1373284E-01
   7160.67  3.1140650E-01
   7161.00  3.0941831E-01
   7161.33  3.0788255E-01
   7161.67  3.0679106E-01
   7162.00  3.0616238E-01
   7162.33  3.0606365E-01
   7162.67  3.0643522E-01
   7163.00  3.0726830E-01
   7163.33  3.0859695E-01
   7163.67  3.1033636E-01
   7164.00  3.1245831E-01
   7164.33  3.1497134E-01
   7164.67  3.1779604E-01
   7165.00  3.2090235E-01
   7165.33  3.2428866E-01
   7165.67  3.2789405E-01
   7166.00  3.3169543E-01
   7166.33  3.3569038E-01
   7166.67  3.3983568E-01
   7167.00  3.4411346E-01
   7167.33  3.4851683E-01
   7167.67  3.5301030E-01
   7168.00  3.5757467E-01
   7168.33  3.6219289E-01
   7168.67  3.6683522E-01
   7169.00  3.7148080E-01
   7169.33  3.7610242E-01
   7169.67  3.8067731E-01
   7170.00  3.8518166E-01
   7170.33  3.8957092E-01
   7170.67  3.9381777E-01
   7171.00  3.9787471E-01
   7171.33  4.0162049E-01
   7171.67  4.0493749E-01
   7172.00  4.0763133E-01
