    FDMNES
    energy     <xanes>
   7097.00  5.2130747E-03
   7097.33  5.3393545E-03
   7097.67  5.4714232E-03
   7098.00  5.6096685E-03
   7098.33  5.7554219E-03
   7098.67  5.9084017E-03
   7099.00  6.0691310E-03
   7099.33  6.2393394E-03
   7099.67  6.4187309E-03
   7100.00  6.6080285E-03
   7100.33  6.8095308E-03
   7100.67  7.0229472E-03
   7101.00  7.2493039E-03
   7101.33  7.4917392E-03
   7101.67  7.7500112E-03
   7102.00  8.0256245E-03
   7102.33  8.3230020E-03
   7102.67  8.6420469E-03
   7103.00  8.9850497E-03
   7103.33  9.3584878E-03
   7103.67  9.7626221E-03
   7104.00  1.0201105E-02
   7104.33  1.0683881E-02
   7104.67  1.1212057E-02
   7105.00  1.1791804E-02
   7105.33  1.2439325E-02
   7105.67  1.3157778E-02
   7106.00  1.3958387E-02
   7106.33  1.4869714E-02
   7106.67  1.5900215E-02
   7107.00  1.7072498E-02
   7107.33  1.8442729E-02
   7107.67  2.0034865E-02
   7108.00  2.1901791E-02
   7108.33  2.4174031E-02
   7108.67  2.6931755E-02
   7109.00  3.0333322E-02
   7109.33  3.4784246E-02
   7109.67  4.0663161E-02
   7110.00  4.8709592E-02
   7110.33  6.0968089E-02
   7110.67  7.9341416E-02
   7111.00  1.0412479E-01
   7111.33  1.3124717E-01
   7111.67  1.6232261E-01
   7112.00  2.0674630E-01
   7112.33  2.7539447E-01
   7112.67  3.6429698E-01
   7113.00  4.5725347E-01
   7113.33  5.3138185E-01
   7113.67  6.1703900E-01
   7114.00  7.0527640E-01
   7114.33  6.9664019E-01
   7114.67  5.9025380E-01
   7115.00  4.5720004E-01
   7115.33  3.5500405E-01
   7115.67  2.8620132E-01
   7116.00  2.4350639E-01
   7116.33  2.2128823E-01
   7116.67  2.1119080E-01
   7117.00  2.0819128E-01
   7117.33  2.0737050E-01
   7117.67  2.0506336E-01
   7118.00  1.9952539E-01
   7118.33  1.8966890E-01
   7118.67  1.7697627E-01
   7119.00  1.6318834E-01
   7119.33  1.5053869E-01
   7119.67  1.4008093E-01
   7120.00  1.3197554E-01
   7120.33  1.2628705E-01
   7120.67  1.2253525E-01
   7121.00  1.2045263E-01
   7121.33  1.1965609E-01
   7121.67  1.1970866E-01
   7122.00  1.2075718E-01
   7122.33  1.2310405E-01
   7122.67  1.2648594E-01
   7123.00  1.3076636E-01
   7123.33  1.3610465E-01
   7123.67  1.4271275E-01
   7124.00  1.5104782E-01
   7124.33  1.6187168E-01
   7124.67  1.7479121E-01
   7125.00  1.8883957E-01
   7125.33  2.0276710E-01
   7125.67  2.1734904E-01
   7126.00  2.3502776E-01
   7126.33  2.5937836E-01
   7126.67  2.9037141E-01
   7127.00  3.2613215E-01
   7127.33  3.6201254E-01
   7127.67  3.9239602E-01
   7128.00  4.1390070E-01
   7128.33  4.2558037E-01
   7128.67  4.3259162E-01
   7129.00  4.3915005E-01
   7129.33  4.4915446E-01
   7129.67  4.6387536E-01
   7130.00  4.8346000E-01
   7130.33  5.0783137E-01
   7130.67  5.3589361E-01
   7131.00  5.6769151E-01
   7131.33  6.0497913E-01
   7131.67  6.4937174E-01
   7132.00  7.0287623E-01
   7132.33  7.6809749E-01
   7132.67  8.4296973E-01
   7133.00  9.2425492E-01
   7133.33  1.0034864E+00
   7133.67  1.0682484E+00
   7134.00  1.1081487E+00
   7134.33  1.1143581E+00
   7134.67  1.0934372E+00
   7135.00  1.0507093E+00
   7135.33  9.9149771E-01
   7135.67  9.2492071E-01
   7136.00  8.5633597E-01
   7136.33  7.9039148E-01
   7136.67  7.2921648E-01
   7137.00  6.7379444E-01
   7137.33  6.2530118E-01
   7137.67  5.8296202E-01
   7138.00  5.4662794E-01
   7138.33  5.1677086E-01
   7138.67  4.9237451E-01
   7139.00  4.7314652E-01
   7139.33  4.5929286E-01
   7139.67  4.4977745E-01
   7140.00  4.4419333E-01
   7140.33  4.4247460E-01
   7140.67  4.4370304E-01
   7141.00  4.4747725E-01
   7141.33  4.5361211E-01
   7141.67  4.6141479E-01
   7142.00  4.7052488E-01
   7142.33  4.8064457E-01
   7142.67  4.9127316E-01
   7143.00  5.0211251E-01
   7143.33  5.1287554E-01
   7143.67  5.2338352E-01
   7144.00  5.3354663E-01
   7144.33  5.4327163E-01
   7144.67  5.5259225E-01
   7145.00  5.6149406E-01
   7145.33  5.6988436E-01
   7145.67  5.7775834E-01
   7146.00  5.8504556E-01
   7146.33  5.9156918E-01
   7146.67  5.9732556E-01
   7147.00  6.0225437E-01
   7147.33  6.0620420E-01
   7147.67  6.0927084E-01
   7148.00  6.1146544E-01
   7148.33  6.1271459E-01
   7148.67  6.1316505E-01
   7149.00  6.1285952E-01
   7149.33  6.1176550E-01
   7149.67  6.1002772E-01
   7150.00  6.0770028E-01
   7150.33  6.0479262E-01
   7150.67  6.0145503E-01
   7151.00  5.9777151E-01
   7151.33  5.9382321E-01
   7151.67  5.8976268E-01
   7152.00  5.8569833E-01
   7152.33  5.8176529E-01
   7152.67  5.7805826E-01
   7153.00  5.7465741E-01
   7153.33  5.7168232E-01
   7153.67  5.6913158E-01
   7154.00  5.6702257E-01
   7154.33  5.6540554E-01
   7154.67  5.6419787E-01
   7155.00  5.6336081E-01
   7155.33  5.6287660E-01
   7155.67  5.6264281E-01
   7156.00  5.6260618E-01
   7156.33  5.6273093E-01
   7156.67  5.6296073E-01
   7157.00  5.6327811E-01
   7157.33  5.6369153E-01
   7157.67  5.6420314E-01
   7158.00  5.6483144E-01
   7158.33  5.6562295E-01
   7158.67  5.6658689E-01
   7159.00  5.6773787E-01
   7159.33  5.6909949E-01
   7159.67  5.7062607E-01
   7160.00  5.7227973E-01
   7160.33  5.7400472E-01
   7160.67  5.7570777E-01
   7161.00  5.7730085E-01
   7161.33  5.7864297E-01
   7161.67  5.7964876E-01
   7162.00  5.8023279E-01
   7162.33  5.8025407E-01
   7162.67  5.7972119E-01
   7163.00  5.7860858E-01
   7163.33  5.7683366E-01
   7163.67  5.7447788E-01
   7164.00  5.7155755E-01
   7164.33  5.6803030E-01
   7164.67  5.6399077E-01
   7165.00  5.5946106E-01
   7165.33  5.5440618E-01
   7165.67  5.4890731E-01
   7166.00  5.4298431E-01
   7166.33  5.3661266E-01
   7166.67  5.2987377E-01
   7167.00  5.2279979E-01
   7167.33  5.1539616E-01
   7167.67  5.0774780E-01
   7168.00  4.9990113E-01
   7168.33  4.9189632E-01
   7168.67  4.8381538E-01
   7169.00  4.7572343E-01
   7169.33  4.6770940E-01
   7169.67  4.5984075E-01
   7170.00  4.5218141E-01
   7170.33  4.4484343E-01
   7170.67  4.3787591E-01
   7171.00  4.3136450E-01
   7171.33  4.2551256E-01
   7171.67  4.2044343E-01
   7172.00  4.1638615E-01
