    FDMNES
    energy     <xanes>
   7097.00  5.5739707E-03
   7097.33  5.7224286E-03
   7097.67  5.8782647E-03
   7098.00  6.0420047E-03
   7098.33  6.2153996E-03
   7098.67  6.3981334E-03
   7099.00  6.5909261E-03
   7099.33  6.7960875E-03
   7099.67  7.0132964E-03
   7100.00  7.2435631E-03
   7100.33  7.4900096E-03
   7100.67  7.7523435E-03
   7101.00  8.0320228E-03
   7101.33  8.3333882E-03
   7101.67  8.6562504E-03
   7102.00  9.0027845E-03
   7102.33  9.3792294E-03
   7102.67  9.7856601E-03
   7103.00  1.0225451E-02
   7103.33  1.0707933E-02
   7103.67  1.1233801E-02
   7104.00  1.1808541E-02
   7104.33  1.2446806E-02
   7104.67  1.3150719E-02
   7105.00  1.3929736E-02
   7105.33  1.4808294E-02
   7105.67  1.5791932E-02
   7106.00  1.6898177E-02
   7106.33  1.8171076E-02
   7106.67  1.9624857E-02
   7107.00  2.1295301E-02
   7107.33  2.3270432E-02
   7107.67  2.5589156E-02
   7108.00  2.8334867E-02
   7108.33  3.1711156E-02
   7108.67  3.5840085E-02
   7109.00  4.0958563E-02
   7109.33  4.7657339E-02
   7109.67  5.6430881E-02
   7110.00  6.8214543E-02
   7110.33  8.5510567E-02
   7110.67  1.1102224E-01
   7111.00  1.4865520E-01
   7111.33  2.0584117E-01
   7111.67  2.9145230E-01
   7112.00  4.2225200E-01
   7112.33  6.1380870E-01
   7112.67  8.1835575E-01
   7113.00  9.6029086E-01
   7113.33  9.2633923E-01
   7113.67  7.6310054E-01
   7114.00  5.8313855E-01
   7114.33  4.5320203E-01
   7114.67  3.6393300E-01
   7115.00  3.0213383E-01
   7115.33  2.5952717E-01
   7115.67  2.2888168E-01
   7116.00  2.0781902E-01
   7116.33  1.9561406E-01
   7116.67  1.9021386E-01
   7117.00  1.9045382E-01
   7117.33  1.9269656E-01
   7117.67  1.9038434E-01
   7118.00  1.8218276E-01
   7118.33  1.7244574E-01
   7118.67  1.6471878E-01
   7119.00  1.5941132E-01
   7119.33  1.5579448E-01
   7119.67  1.5227887E-01
   7120.00  1.4781966E-01
   7120.33  1.4240159E-01
   7120.67  1.3829671E-01
   7121.00  1.3729636E-01
   7121.33  1.3998619E-01
   7121.67  1.4502417E-01
   7122.00  1.5146624E-01
   7122.33  1.5788557E-01
   7122.67  1.6275750E-01
   7123.00  1.6627769E-01
   7123.33  1.7081033E-01
   7123.67  1.7767511E-01
   7124.00  1.8684179E-01
   7124.33  1.9792418E-01
   7124.67  2.0984828E-01
   7125.00  2.2165793E-01
   7125.33  2.3180699E-01
   7125.67  2.3930724E-01
   7126.00  2.4404239E-01
   7126.33  2.4714109E-01
   7126.67  2.5095617E-01
   7127.00  2.5727655E-01
   7127.33  2.6808477E-01
   7127.67  2.8351610E-01
   7128.00  3.0347949E-01
   7128.33  3.2801811E-01
   7128.67  3.5625551E-01
   7129.00  3.8814657E-01
   7129.33  4.2435395E-01
   7129.67  4.6442317E-01
   7130.00  5.0796040E-01
   7130.33  5.5408347E-01
   7130.67  6.0054759E-01
   7131.00  6.4526615E-01
   7131.33  6.8544736E-01
   7131.67  7.1994978E-01
   7132.00  7.4781252E-01
   7132.33  7.6717895E-01
   7132.67  7.7827566E-01
   7133.00  7.8082765E-01
   7133.33  7.7416457E-01
   7133.67  7.6060713E-01
   7134.00  7.4198149E-01
   7134.33  7.2046360E-01
   7134.67  6.9858344E-01
   7135.00  6.7754181E-01
   7135.33  6.5773711E-01
   7135.67  6.3804671E-01
   7136.00  6.1699956E-01
   7136.33  5.9286798E-01
   7136.67  5.6613877E-01
   7137.00  5.3838884E-01
   7137.33  5.1245460E-01
   7137.67  4.9046420E-01
   7138.00  4.7367385E-01
   7138.33  4.6332746E-01
   7138.67  4.5841334E-01
   7139.00  4.5822439E-01
   7139.33  4.6213676E-01
   7139.67  4.6861618E-01
   7140.00  4.7690374E-01
   7140.33  4.8653953E-01
   7140.67  4.9703351E-01
   7141.00  5.0824741E-01
   7141.33  5.2020528E-01
   7141.67  5.3281979E-01
   7142.00  5.4610224E-01
   7142.33  5.6014984E-01
   7142.67  5.7487414E-01
   7143.00  5.9025070E-01
   7143.33  6.0629272E-01
   7143.67  6.2282651E-01
   7144.00  6.3974072E-01
   7144.33  6.5691399E-01
   7144.67  6.7414470E-01
   7145.00  6.9126478E-01
   7145.33  7.0801605E-01
   7145.67  7.2420006E-01
   7146.00  7.3959527E-01
   7146.33  7.5380080E-01
   7146.67  7.6668273E-01
   7147.00  7.7802994E-01
   7147.33  7.8742071E-01
   7147.67  7.9493176E-01
   7148.00  8.0050392E-01
   7148.33  8.0390495E-01
   7148.67  8.0546045E-01
   7149.00  8.0528633E-01
   7149.33  8.0335512E-01
   7149.67  8.0004471E-01
   7150.00  7.9551236E-01
   7150.33  7.8980532E-01
   7150.67  7.8322480E-01
   7151.00  7.7591932E-01
   7151.33  7.6800342E-01
   7151.67  7.5970371E-01
   7152.00  7.5113350E-01
   7152.33  7.4239544E-01
   7152.67  7.3361975E-01
   7153.00  7.2489363E-01
   7153.33  7.1632372E-01
   7153.67  7.0796722E-01
   7154.00  6.9987616E-01
   7154.33  6.9213502E-01
   7154.67  6.8473452E-01
   7155.00  6.7768893E-01
   7155.33  6.7104730E-01
   7155.67  6.6475599E-01
   7156.00  6.5879831E-01
   7156.33  6.5318422E-01
   7156.67  6.4784025E-01
   7157.00  6.4273163E-01
   7157.33  6.3783713E-01
   7157.67  6.3308609E-01
   7158.00  6.2843899E-01
   7158.33  6.2385836E-01
   7158.67  6.1929332E-01
   7159.00  6.1470799E-01
   7159.33  6.1005440E-01
   7159.67  6.0530032E-01
   7160.00  6.0041077E-01
   7160.33  5.9531897E-01
   7160.67  5.8999783E-01
   7161.00  5.8440162E-01
   7161.33  5.7843343E-01
   7161.67  5.7207743E-01
   7162.00  5.6528604E-01
   7162.33  5.5795502E-01
   7162.67  5.5011580E-01
   7163.00  5.4175897E-01
   7163.33  5.3282998E-01
   7163.67  5.2342482E-01
   7164.00  5.1359092E-01
   7164.33  5.0336018E-01
   7164.67  4.9287101E-01
   7165.00  4.8221427E-01
   7165.33  4.7149280E-01
   7165.67  4.6082304E-01
   7166.00  4.5029385E-01
   7166.33  4.4002584E-01
   7166.67  4.3006762E-01
   7167.00  4.2047402E-01
   7167.33  4.1134347E-01
   7167.67  4.0265345E-01
   7168.00  3.9441352E-01
   7168.33  3.8667537E-01
   7168.67  3.7937550E-01
   7169.00  3.7250610E-01
   7169.33  3.6610592E-01
   7169.67  3.6010697E-01
   7170.00  3.5449533E-01
   7170.33  3.4930477E-01
   7170.67  3.4448460E-01
   7171.00  3.4004470E-01
   7171.33  3.3607690E-01
   7171.67  3.3262347E-01
   7172.00  3.2981852E-01
