    FDMNES
    energy     <xanes>
   7097.00  4.2942861E-03
   7097.33  4.3825737E-03
   7097.67  4.4743343E-03
   7098.00  4.5697809E-03
   7098.33  4.6696817E-03
   7098.67  4.7738449E-03
   7099.00  4.8825573E-03
   7099.33  4.9968050E-03
   7099.67  5.1163886E-03
   7100.00  5.2417056E-03
   7100.33  5.3740569E-03
   7100.67  5.5132497E-03
   7101.00  5.6598539E-03
   7101.33  5.8156437E-03
   7101.67  5.9804658E-03
   7102.00  6.1551706E-03
   7102.33  6.3422793E-03
   7102.67  6.5417512E-03
   7103.00  6.7549211E-03
   7103.33  6.9855570E-03
   7103.67  7.2339026E-03
   7104.00  7.5021849E-03
   7104.33  7.7964061E-03
   7104.67  8.1175166E-03
   7105.00  8.4695288E-03
   7105.33  8.8628236E-03
   7105.67  9.3001826E-03
   7106.00  9.7895972E-03
   7106.33  1.0351084E-02
   7106.67  1.0992645E-02
   7107.00  1.1732497E-02
   7107.33  1.2615501E-02
   7107.67  1.3667030E-02
   7108.00  1.4937483E-02
   7108.33  1.6552215E-02
   7108.67  1.8610736E-02
   7109.00  2.1300808E-02
   7109.33  2.5119673E-02
   7109.67  3.0637375E-02
   7110.00  3.8974446E-02
   7110.33  5.3394546E-02
   7110.67  7.7610888E-02
   7111.00  1.1251334E-01
   7111.33  1.4164738E-01
   7111.67  1.5885953E-01
   7112.00  1.7015339E-01
   7112.33  1.7920691E-01
   7112.67  1.8188182E-01
   7113.00  1.6998366E-01
   7113.33  1.4482463E-01
   7113.67  1.2174624E-01
   7114.00  1.0730601E-01
   7114.33  9.4878792E-02
   7114.67  7.9400602E-02
   7115.00  6.6302038E-02
   7115.33  5.8877431E-02
   7115.67  5.5192145E-02
   7116.00  5.4168092E-02
   7116.33  5.5370198E-02
   7116.67  5.8040990E-02
   7117.00  6.1376335E-02
   7117.33  6.4007044E-02
   7117.67  6.5994596E-02
   7118.00  6.8505723E-02
   7118.33  7.2668045E-02
   7118.67  7.8431418E-02
   7119.00  8.5762337E-02
   7119.33  9.5177487E-02
   7119.67  1.0711421E-01
   7120.00  1.2221755E-01
   7120.33  1.4156597E-01
   7120.67  1.6506314E-01
   7121.00  1.9272561E-01
   7121.33  2.2434112E-01
   7121.67  2.5783292E-01
   7122.00  2.9120496E-01
   7122.33  3.2222794E-01
   7122.67  3.5077626E-01
   7123.00  3.7784652E-01
   7123.33  4.0498092E-01
   7123.67  4.3277212E-01
   7124.00  4.6032677E-01
   7124.33  4.8489326E-01
   7124.67  5.0512826E-01
   7125.00  5.2101588E-01
   7125.33  5.3190923E-01
   7125.67  5.3832705E-01
   7126.00  5.4127698E-01
   7126.33  5.4217568E-01
   7126.67  5.4183028E-01
   7127.00  5.4004933E-01
   7127.33  5.3696397E-01
   7127.67  5.3377263E-01
   7128.00  5.3139800E-01
   7128.33  5.3072508E-01
   7128.67  5.3184252E-01
   7129.00  5.3463998E-01
   7129.33  5.3880368E-01
   7129.67  5.4352870E-01
   7130.00  5.4833166E-01
   7130.33  5.5315292E-01
   7130.67  5.5871861E-01
   7131.00  5.6597280E-01
   7131.33  5.7601204E-01
   7131.67  5.8870820E-01
   7132.00  6.0382990E-01
   7132.33  6.2106134E-01
   7132.67  6.3937283E-01
   7133.00  6.5790858E-01
   7133.33  6.7551460E-01
   7133.67  6.9150449E-01
   7134.00  7.0554858E-01
   7134.33  7.1702697E-01
   7134.67  7.2557926E-01
   7135.00  7.3067481E-01
   7135.33  7.3182917E-01
   7135.67  7.3010177E-01
   7136.00  7.2633541E-01
   7136.33  7.2144616E-01
   7136.67  7.1642592E-01
   7137.00  7.1176500E-01
   7137.33  7.0778050E-01
   7137.67  7.0433304E-01
   7138.00  7.0119394E-01
   7138.33  6.9798717E-01
   7138.67  6.9434795E-01
   7139.00  6.9002983E-01
   7139.33  6.8479299E-01
   7139.67  6.7878794E-01
   7140.00  6.7217984E-01
   7140.33  6.6516191E-01
   7140.67  6.5801190E-01
   7141.00  6.5093251E-01
   7141.33  6.4418992E-01
   7141.67  6.3794490E-01
   7142.00  6.3233393E-01
   7142.33  6.2756915E-01
   7142.67  6.2363461E-01
   7143.00  6.2056951E-01
   7143.33  6.1850153E-01
   7143.67  6.1730783E-01
   7144.00  6.1695490E-01
   7144.33  6.1747127E-01
   7144.67  6.1865826E-01
   7145.00  6.2039934E-01
   7145.33  6.2257251E-01
   7145.67  6.2492539E-01
   7146.00  6.2725967E-01
   7146.33  6.2929069E-01
   7146.67  6.3079009E-01
   7147.00  6.3153582E-01
   7147.33  6.3116428E-01
   7147.67  6.2960163E-01
   7148.00  6.2672948E-01
   7148.33  6.2231766E-01
   7148.67  6.1657217E-01
   7149.00  6.0959680E-01
   7149.33  6.0145557E-01
   7149.67  5.9252587E-01
   7150.00  5.8304079E-01
   7150.33  5.7323204E-01
   7150.67  5.6337650E-01
   7151.00  5.5364812E-01
   7151.33  5.4423895E-01
   7151.67  5.3521947E-01
   7152.00  5.2664725E-01
   7152.33  5.1861756E-01
   7152.67  5.1107638E-01
   7153.00  5.0401681E-01
   7153.33  4.9748078E-01
   7153.67  4.9138106E-01
   7154.00  4.8568353E-01
   7154.33  4.8038237E-01
   7154.67  4.7537332E-01
   7155.00  4.7060151E-01
   7155.33  4.6602221E-01
   7155.67  4.6154268E-01
   7156.00  4.5709878E-01
   7156.33  4.5261040E-01
   7156.67  4.4801098E-01
   7157.00  4.4324534E-01
   7157.33  4.3823237E-01
   7157.67  4.3296151E-01
   7158.00  4.2741491E-01
   7158.33  4.2155600E-01
   7158.67  4.1543924E-01
   7159.00  4.0909873E-01
   7159.33  4.0257247E-01
   7159.67  3.9595733E-01
   7160.00  3.8932835E-01
   7160.33  3.8278804E-01
   7160.67  3.7641991E-01
   7161.00  3.7030090E-01
   7161.33  3.6455495E-01
   7161.67  3.5921405E-01
   7162.00  3.5433288E-01
   7162.33  3.5002818E-01
   7162.67  3.4627574E-01
   7163.00  3.4309829E-01
   7163.33  3.4058520E-01
   7163.67  3.3867076E-01
   7164.00  3.3735164E-01
   7164.33  3.3667776E-01
   7164.67  3.3654290E-01
   7165.00  3.3691395E-01
   7165.33  3.3780379E-01
   7165.67  3.3910409E-01
   7166.00  3.4076956E-01
   7166.33  3.4278771E-01
   7166.67  3.4507086E-01
   7167.00  3.4758140E-01
   7167.33  3.5030503E-01
   7167.67  3.5318593E-01
   7168.00  3.5619988E-01
   7168.33  3.5933373E-01
   7168.67  3.6254860E-01
   7169.00  3.6582282E-01
   7169.33  3.6913461E-01
   7169.67  3.7245151E-01
   7170.00  3.7574617E-01
   7170.33  3.7897514E-01
   7170.67  3.8210322E-01
   7171.00  3.8508554E-01
   7171.33  3.8782296E-01
   7171.67  3.9022848E-01
   7172.00  3.9216280E-01
