    FDMNES
    energy     <xanes>
   7097.00  4.5822686E-03
   7097.33  4.6834308E-03
   7097.67  4.7888718E-03
   7098.00  4.8988662E-03
   7098.33  5.0143801E-03
   7098.67  5.1351917E-03
   7099.00  5.2616722E-03
   7099.33  5.3950703E-03
   7099.67  5.5351558E-03
   7100.00  5.6824432E-03
   7100.33  5.8385896E-03
   7100.67  6.0033730E-03
   7101.00  6.1775304E-03
   7101.33  6.3633297E-03
   7101.67  6.5605967E-03
   7102.00  6.7704275E-03
   7102.33  6.9960459E-03
   7102.67  7.2374134E-03
   7103.00  7.4962369E-03
   7103.33  7.7773186E-03
   7103.67  8.0809583E-03
   7104.00  8.4099702E-03
   7104.33  8.7719406E-03
   7104.67  9.1679986E-03
   7105.00  9.6031314E-03
   7105.33  1.0090270E-02
   7105.67  1.0632661E-02
   7106.00  1.1240018E-02
   7106.33  1.1936739E-02
   7106.67  1.2731992E-02
   7107.00  1.3647300E-02
   7107.33  1.4735733E-02
   7107.67  1.6025712E-02
   7108.00  1.7574734E-02
   7108.33  1.9525530E-02
   7108.67  2.1986387E-02
   7109.00  2.5162918E-02
   7109.33  2.9595989E-02
   7109.67  3.5884921E-02
   7110.00  4.5204180E-02
   7110.33  6.0941306E-02
   7110.67  8.6905899E-02
   7111.00  1.2505026E-01
   7111.33  1.6472515E-01
   7111.67  1.8681037E-01
   7112.00  1.9327121E-01
   7112.33  2.0440854E-01
   7112.67  2.2690381E-01
   7113.00  2.5218431E-01
   7113.33  2.6260671E-01
   7113.67  2.5637505E-01
   7114.00  2.3322093E-01
   7114.33  1.9460000E-01
   7114.67  1.5821672E-01
   7115.00  1.3206561E-01
   7115.33  1.1698113E-01
   7115.67  1.0914242E-01
   7116.00  1.0713132E-01
   7116.33  1.1069591E-01
   7116.67  1.1857922E-01
   7117.00  1.3014118E-01
   7117.33  1.4491888E-01
   7117.67  1.6138798E-01
   7118.00  1.7772867E-01
   7118.33  1.9062171E-01
   7118.67  1.9787394E-01
   7119.00  1.9898419E-01
   7119.33  1.9477177E-01
   7119.67  1.8920323E-01
   7120.00  1.8662938E-01
   7120.33  1.9085095E-01
   7120.67  2.0109895E-01
   7121.00  2.1640140E-01
   7121.33  2.3624664E-01
   7121.67  2.5871077E-01
   7122.00  2.8143391E-01
   7122.33  3.0097466E-01
   7122.67  3.1672271E-01
   7123.00  3.3012536E-01
   7123.33  3.4328733E-01
   7123.67  3.5746640E-01
   7124.00  3.7318910E-01
   7124.33  3.9100454E-01
   7124.67  4.1057546E-01
   7125.00  4.3176228E-01
   7125.33  4.5476668E-01
   7125.67  4.7900211E-01
   7126.00  5.0360924E-01
   7126.33  5.2704822E-01
   7126.67  5.4775165E-01
   7127.00  5.6416016E-01
   7127.33  5.7393947E-01
   7127.67  5.7724532E-01
   7128.00  5.7511325E-01
   7128.33  5.6998922E-01
   7128.67  5.6518255E-01
   7129.00  5.6215093E-01
   7129.33  5.6088932E-01
   7129.67  5.5931300E-01
   7130.00  5.5521929E-01
   7130.33  5.4626182E-01
   7130.67  5.3324537E-01
   7131.00  5.1799987E-01
   7131.33  5.0331615E-01
   7131.67  4.9126342E-01
   7132.00  4.8278302E-01
   7132.33  4.7841633E-01
   7132.67  4.7689327E-01
   7133.00  4.7704827E-01
   7133.33  4.7747102E-01
   7133.67  4.7721764E-01
   7134.00  4.7636407E-01
   7134.33  4.7588194E-01
   7134.67  4.7669668E-01
   7135.00  4.7920793E-01
   7135.33  4.8364529E-01
   7135.67  4.8956261E-01
   7136.00  4.9669852E-01
   7136.33  5.0488605E-01
   7136.67  5.1378264E-01
   7137.00  5.2323249E-01
   7137.33  5.3313037E-01
   7137.67  5.4330745E-01
   7138.00  5.5370809E-01
   7138.33  5.6434831E-01
   7138.67  5.7519707E-01
   7139.00  5.8618840E-01
   7139.33  5.9709733E-01
   7139.67  6.0755649E-01
   7140.00  6.1715197E-01
   7140.33  6.2521093E-01
   7140.67  6.3148825E-01
   7141.00  6.3576811E-01
   7141.33  6.3774856E-01
   7141.67  6.3784957E-01
   7142.00  6.3634346E-01
   7142.33  6.3349084E-01
   7142.67  6.2989096E-01
   7143.00  6.2592028E-01
   7143.33  6.2197472E-01
   7143.67  6.1837690E-01
   7144.00  6.1534942E-01
   7144.33  6.1319046E-01
   7144.67  6.1195581E-01
   7145.00  6.1174536E-01
   7145.33  6.1278421E-01
   7145.67  6.1498722E-01
   7146.00  6.1836955E-01
   7146.33  6.2304403E-01
   7146.67  6.2876727E-01
   7147.00  6.3538902E-01
   7147.33  6.4275138E-01
   7147.67  6.5049548E-01
   7148.00  6.5837762E-01
   7148.33  6.6611150E-01
   7148.67  6.7347663E-01
   7149.00  6.8030250E-01
   7149.33  6.8633130E-01
   7149.67  6.9148887E-01
   7150.00  6.9562703E-01
   7150.33  6.9842348E-01
   7150.67  6.9986054E-01
   7151.00  6.9981371E-01
   7151.33  6.9799190E-01
   7151.67  6.9457747E-01
   7152.00  6.8963026E-01
   7152.33  6.8312798E-01
   7152.67  6.7546188E-01
   7153.00  6.6685244E-01
   7153.33  6.5748347E-01
   7153.67  6.4769551E-01
   7154.00  6.3768363E-01
   7154.33  6.2762957E-01
   7154.67  6.1767649E-01
   7155.00  6.0790532E-01
   7155.33  5.9839987E-01
   7155.67  5.8915095E-01
   7156.00  5.8015421E-01
   7156.33  5.7141305E-01
   7156.67  5.6286310E-01
   7157.00  5.5447235E-01
   7157.33  5.4622342E-01
   7157.67  5.3807552E-01
   7158.00  5.3001468E-01
   7158.33  5.2204296E-01
   7158.67  5.1415194E-01
   7159.00  5.0634985E-01
   7159.33  4.9866589E-01
   7159.67  4.9110890E-01
   7160.00  4.8370089E-01
   7160.33  4.7648958E-01
   7160.67  4.6947768E-01
   7161.00  4.6268797E-01
   7161.33  4.5618617E-01
   7161.67  4.4998252E-01
   7162.00  4.4411733E-01
   7162.33  4.3868753E-01
   7162.67  4.3368890E-01
   7163.00  4.2914776E-01
   7163.33  4.2513015E-01
   7163.67  4.2155925E-01
   7164.00  4.1840136E-01
   7164.33  4.1564857E-01
   7164.67  4.1319643E-01
   7165.00  4.1099552E-01
   7165.33  4.0902157E-01
   7165.67  4.0721151E-01
   7166.00  4.0554206E-01
   7166.33  4.0401003E-01
   7166.67  4.0258844E-01
   7167.00  4.0127108E-01
   7167.33  4.0006606E-01
   7167.67  3.9895796E-01
   7168.00  3.9794437E-01
   7168.33  3.9703295E-01
   7168.67  3.9620692E-01
   7169.00  3.9546052E-01
   7169.33  3.9479547E-01
   7169.67  3.9419544E-01
   7170.00  3.9365492E-01
   7170.33  3.9317580E-01
   7170.67  3.9274805E-01
   7171.00  3.9237010E-01
   7171.33  3.9204763E-01
   7171.67  3.9177429E-01
   7172.00  3.9154799E-01
