    FDMNES
    energy     <xanes>
   7097.00  5.3766916E-03
   7097.33  5.5114146E-03
   7097.67  5.6525691E-03
   7098.00  5.8006071E-03
   7098.33  5.9570453E-03
   7098.67  6.1216017E-03
   7099.00  6.2948971E-03
   7099.33  6.4789323E-03
   7099.67  6.6734248E-03
   7100.00  6.8792501E-03
   7100.33  7.0991189E-03
   7100.67  7.3327824E-03
   7101.00  7.5815152E-03
   7101.33  7.8491070E-03
   7101.67  8.1354194E-03
   7102.00  8.4423789E-03
   7102.33  8.7754874E-03
   7102.67  9.1348867E-03
   7103.00  9.5236233E-03
   7103.33  9.9500633E-03
   7103.67  1.0415016E-02
   7104.00  1.0923575E-02
   7104.33  1.1489221E-02
   7104.67  1.2114362E-02
   7105.00  1.2808143E-02
   7105.33  1.3593956E-02
   7105.67  1.4478252E-02
   7106.00  1.5479034E-02
   7106.33  1.6641124E-02
   7106.67  1.7982199E-02
   7107.00  1.9542462E-02
   7107.33  2.1420528E-02
   7107.67  2.3670334E-02
   7108.00  2.6399561E-02
   7108.33  2.9874596E-02
   7108.67  3.4297920E-02
   7109.00  4.0051628E-02
   7109.33  4.8135322E-02
   7109.67  5.9641416E-02
   7110.00  7.6697840E-02
   7110.33  1.0543868E-01
   7110.67  1.5321276E-01
   7111.00  2.2651199E-01
   7111.33  3.1759254E-01
   7111.67  3.8903913E-01
   7112.00  4.0351124E-01
   7112.33  3.6854242E-01
   7112.67  3.4137490E-01
   7113.00  3.4290387E-01
   7113.33  3.7578876E-01
   7113.67  4.1127589E-01
   7114.00  4.2364354E-01
   7114.33  4.0766205E-01
   7114.67  3.7713103E-01
   7115.00  3.4620901E-01
   7115.33  3.2469518E-01
   7115.67  3.0459747E-01
   7116.00  2.8040196E-01
   7116.33  2.5459626E-01
   7116.67  2.3200472E-01
   7117.00  2.1405798E-01
   7117.33  2.0057233E-01
   7117.67  1.8937088E-01
   7118.00  1.7933466E-01
   7118.33  1.7038092E-01
   7118.67  1.6293962E-01
   7119.00  1.5741894E-01
   7119.33  1.5407944E-01
   7119.67  1.5234369E-01
   7120.00  1.5190966E-01
   7120.33  1.5261000E-01
   7120.67  1.5395233E-01
   7121.00  1.5572306E-01
   7121.33  1.5805565E-01
   7121.67  1.6100161E-01
   7122.00  1.6464174E-01
   7122.33  1.6933423E-01
   7122.67  1.7535289E-01
   7123.00  1.8310750E-01
   7123.33  1.9343866E-01
   7123.67  2.0667794E-01
   7124.00  2.2330834E-01
   7124.33  2.4393166E-01
   7124.67  2.6732220E-01
   7125.00  2.9224493E-01
   7125.33  3.1812883E-01
   7125.67  3.4461260E-01
   7126.00  3.7030547E-01
   7126.33  3.9262004E-01
   7126.67  4.1124859E-01
   7127.00  4.2724524E-01
   7127.33  4.4235574E-01
   7127.67  4.5799144E-01
   7128.00  4.7462571E-01
   7128.33  4.9238575E-01
   7128.67  5.1084774E-01
   7129.00  5.2998331E-01
   7129.33  5.5059745E-01
   7129.67  5.7367257E-01
   7130.00  6.0022157E-01
   7130.33  6.3161748E-01
   7130.67  6.6782848E-01
   7131.00  7.0922341E-01
   7131.33  7.5688899E-01
   7131.67  8.1002556E-01
   7132.00  8.6737521E-01
   7132.33  9.2487134E-01
   7132.67  9.7490734E-01
   7133.00  1.0092780E+00
   7133.33  1.0177694E+00
   7133.67  1.0024080E+00
   7134.00  9.6751773E-01
   7134.33  9.1891726E-01
   7134.67  8.6498759E-01
   7135.00  8.1014426E-01
   7135.33  7.5770865E-01
   7135.67  7.0855049E-01
   7136.00  6.6275609E-01
   7136.33  6.2058794E-01
   7136.67  5.8171914E-01
   7137.00  5.4646712E-01
   7137.33  5.1585502E-01
   7137.67  4.8979359E-01
   7138.00  4.6844882E-01
   7138.33  4.5233026E-01
   7138.67  4.4054018E-01
   7139.00  4.3266076E-01
   7139.33  4.2853539E-01
   7139.67  4.2717095E-01
   7140.00  4.2812695E-01
   7140.33  4.3121994E-01
   7140.67  4.3588734E-01
   7141.00  4.4190592E-01
   7141.33  4.4918614E-01
   7141.67  4.5735876E-01
   7142.00  4.6621141E-01
   7142.33  4.7552606E-01
   7142.67  4.8497066E-01
   7143.00  4.9431416E-01
   7143.33  5.0328489E-01
   7143.67  5.1175775E-01
   7144.00  5.1964958E-01
   7144.33  5.2685779E-01
   7144.67  5.3349595E-01
   7145.00  5.3963144E-01
   7145.33  5.4531370E-01
   7145.67  5.5069762E-01
   7146.00  5.5586513E-01
   7146.33  5.6087661E-01
   7146.67  5.6580227E-01
   7147.00  5.7066583E-01
   7147.33  5.7546433E-01
   7147.67  5.8018755E-01
   7148.00  5.8480624E-01
   7148.33  5.8925661E-01
   7148.67  5.9350576E-01
   7149.00  5.9750601E-01
   7149.33  6.0117034E-01
   7149.67  6.0450347E-01
   7150.00  6.0749117E-01
   7150.33  6.1008936E-01
   7150.67  6.1235639E-01
   7151.00  6.1431526E-01
   7151.33  6.1596594E-01
   7151.67  6.1737867E-01
   7152.00  6.1858084E-01
   7152.33  6.1957363E-01
   7152.67  6.2039454E-01
   7153.00  6.2104679E-01
   7153.33  6.2150343E-01
   7153.67  6.2177475E-01
   7154.00  6.2184868E-01
   7154.33  6.2168457E-01
   7154.67  6.2129715E-01
   7155.00  6.2068015E-01
   7155.33  6.1980295E-01
   7155.67  6.1869935E-01
   7156.00  6.1737897E-01
   7156.33  6.1583442E-01
   7156.67  6.1411454E-01
   7157.00  6.1224418E-01
   7157.33  6.1024061E-01
   7157.67  6.0815184E-01
   7158.00  6.0600570E-01
   7158.33  6.0382794E-01
   7158.67  6.0164535E-01
   7159.00  5.9947075E-01
   7159.33  5.9730910E-01
   7159.67  5.9514821E-01
   7160.00  5.9296628E-01
   7160.33  5.9071228E-01
   7160.67  5.8833409E-01
   7161.00  5.8577250E-01
   7161.33  5.8292162E-01
   7161.67  5.7974031E-01
   7162.00  5.7617182E-01
   7162.33  5.7210584E-01
   7162.67  5.6756258E-01
   7163.00  5.6253072E-01
   7163.33  5.5695659E-01
   7163.67  5.5092611E-01
   7164.00  5.4447328E-01
   7164.33  5.3760142E-01
   7164.67  5.3041557E-01
   7165.00  5.2296964E-01
   7165.33  5.1530267E-01
   7165.67  5.0750266E-01
   7166.00  4.9962258E-01
   7166.33  4.9171780E-01
   7166.67  4.8384554E-01
   7167.00  4.7605064E-01
   7167.33  4.6839838E-01
   7167.67  4.6091859E-01
   7168.00  4.5364744E-01
   7168.33  4.4665543E-01
   7168.67  4.3994961E-01
   7169.00  4.3355998E-01
   7169.33  4.2755601E-01
   7169.67  4.2191614E-01
   7170.00  4.1665793E-01
   7170.33  4.1185132E-01
   7170.67  4.0746618E-01
   7171.00  4.0352235E-01
   7171.33  4.0011096E-01
   7171.67  3.9722782E-01
   7172.00  3.9494024E-01
