    FDMNES
    energy     <xanes>
   7097.00  4.3128375E-03
   7097.33  4.3957853E-03
   7097.67  4.4817872E-03
   7098.00  4.5710211E-03
   7098.33  4.6641467E-03
   7098.67  4.7609833E-03
   7099.00  4.8617683E-03
   7099.33  4.9673399E-03
   7099.67  5.0775088E-03
   7100.00  5.1926016E-03
   7100.33  5.3137131E-03
   7100.67  5.4406566E-03
   7101.00  5.5738975E-03
   7101.33  5.7149148E-03
   7101.67  5.8635509E-03
   7102.00  6.0204976E-03
   7102.33  6.1878388E-03
   7102.67  6.3655059E-03
   7103.00  6.5545824E-03
   7103.33  6.7581629E-03
   7103.67  6.9764093E-03
   7104.00  7.2111304E-03
   7104.33  7.4672393E-03
   7104.67  7.7454794E-03
   7105.00  8.0491230E-03
   7105.33  8.3866728E-03
   7105.67  8.7604009E-03
   7106.00  9.1768781E-03
   7106.33  9.6525991E-03
   7106.67  1.0194257E-02
   7107.00  1.0817038E-02
   7107.33  1.1558393E-02
   7107.67  1.2440018E-02
   7108.00  1.3504810E-02
   7108.33  1.4859856E-02
   7108.67  1.6592636E-02
   7109.00  1.8868315E-02
   7109.33  2.2128157E-02
   7109.67  2.6893965E-02
   7110.00  3.4194306E-02
   7110.33  4.6971282E-02
   7110.67  6.7835391E-02
   7111.00  9.4908084E-02
   7111.33  1.1710055E-01
   7111.67  1.3431860E-01
   7112.00  1.4417089E-01
   7112.33  1.3882314E-01
   7112.67  1.2748428E-01
   7113.00  1.1544209E-01
   7113.33  1.0293389E-01
   7113.67  8.9739446E-02
   7114.00  7.6142348E-02
   7114.33  6.3046143E-02
   7114.67  5.1746540E-02
   7115.00  4.4296230E-02
   7115.33  4.0707053E-02
   7115.67  3.9349025E-02
   7116.00  3.9557114E-02
   7116.33  4.0990897E-02
   7116.67  4.3125896E-02
   7117.00  4.5614571E-02
   7117.33  4.8154277E-02
   7117.67  5.0782698E-02
   7118.00  5.3856677E-02
   7118.33  5.8009444E-02
   7118.67  6.3458687E-02
   7119.00  7.0295407E-02
   7119.33  7.8551168E-02
   7119.67  8.7622490E-02
   7120.00  9.6968612E-02
   7120.33  1.0636157E-01
   7120.67  1.1655929E-01
   7121.00  1.2891878E-01
   7121.33  1.4577057E-01
   7121.67  1.6827722E-01
   7122.00  1.9738954E-01
   7122.33  2.3335651E-01
   7122.67  2.7160616E-01
   7123.00  3.0659483E-01
   7123.33  3.3291619E-01
   7123.67  3.5345855E-01
   7124.00  3.7319384E-01
   7124.33  3.9710135E-01
   7124.67  4.2581107E-01
   7125.00  4.5842000E-01
   7125.33  4.9391720E-01
   7125.67  5.3095225E-01
   7126.00  5.6809122E-01
   7126.33  6.0188929E-01
   7126.67  6.3009226E-01
   7127.00  6.5328043E-01
   7127.33  6.7495155E-01
   7127.67  6.9843486E-01
   7128.00  7.2377197E-01
   7128.33  7.4919777E-01
   7128.67  7.7370169E-01
   7129.00  7.9708412E-01
   7129.33  8.1790534E-01
   7129.67  8.3419505E-01
   7130.00  8.4453174E-01
   7130.33  8.4851269E-01
   7130.67  8.4871658E-01
   7131.00  8.4687693E-01
   7131.33  8.4419247E-01
   7131.67  8.4104984E-01
   7132.00  8.3695036E-01
   7132.33  8.3043017E-01
   7132.67  8.2035675E-01
   7133.00  8.0573635E-01
   7133.33  7.8549524E-01
   7133.67  7.6130651E-01
   7134.00  7.3563857E-01
   7134.33  7.1227546E-01
   7134.67  6.9308417E-01
   7135.00  6.7826901E-01
   7135.33  6.6755993E-01
   7135.67  6.5964507E-01
   7136.00  6.5397200E-01
   7136.33  6.5033088E-01
   7136.67  6.4818990E-01
   7137.00  6.4732355E-01
   7137.33  6.4759130E-01
   7137.67  6.4858259E-01
   7138.00  6.5004633E-01
   7138.33  6.5172830E-01
   7138.67  6.5336792E-01
   7139.00  6.5480999E-01
   7139.33  6.5588118E-01
   7139.67  6.5652231E-01
   7140.00  6.5665435E-01
   7140.33  6.5609724E-01
   7140.67  6.5479976E-01
   7141.00  6.5263188E-01
   7141.33  6.4929879E-01
   7141.67  6.4476829E-01
   7142.00  6.3892012E-01
   7142.33  6.3148492E-01
   7142.67  6.2261933E-01
   7143.00  6.1236806E-01
   7143.33  6.0069587E-01
   7143.67  5.8795714E-01
   7144.00  5.7437527E-01
   7144.33  5.6019817E-01
   7144.67  5.4584884E-01
   7145.00  5.3165008E-01
   7145.33  5.1801903E-01
   7145.67  5.0516503E-01
   7146.00  4.9324846E-01
   7146.33  4.8251797E-01
   7146.67  4.7290158E-01
   7147.00  4.6441486E-01
   7147.33  4.5717499E-01
   7147.67  4.5098312E-01
   7148.00  4.4576030E-01
   7148.33  4.4149471E-01
   7148.67  4.3794202E-01
   7149.00  4.3497559E-01
   7149.33  4.3250062E-01
   7149.67  4.3031881E-01
   7150.00  4.2831627E-01
   7150.33  4.2638178E-01
   7150.67  4.2440587E-01
   7151.00  4.2231707E-01
   7151.33  4.2003074E-01
   7151.67  4.1752232E-01
   7152.00  4.1476045E-01
   7152.33  4.1168485E-01
   7152.67  4.0832253E-01
   7153.00  4.0467994E-01
   7153.33  4.0074857E-01
   7153.67  3.9659529E-01
   7154.00  3.9225730E-01
   7154.33  3.8777083E-01
   7154.67  3.8321166E-01
   7155.00  3.7863202E-01
   7155.33  3.7409385E-01
   7155.67  3.6964223E-01
   7156.00  3.6531218E-01
   7156.33  3.6115483E-01
   7156.67  3.5717701E-01
   7157.00  3.5340050E-01
   7157.33  3.4988335E-01
   7157.67  3.4663247E-01
   7158.00  3.4368479E-01
   7158.33  3.4113571E-01
   7158.67  3.3899987E-01
   7159.00  3.3733138E-01
   7159.33  3.3625915E-01
   7159.67  3.3577492E-01
   7160.00  3.3592260E-01
   7160.33  3.3682861E-01
   7160.67  3.3843994E-01
   7161.00  3.4077264E-01
   7161.33  3.4391916E-01
   7161.67  3.4777659E-01
   7162.00  3.5232351E-01
   7162.33  3.5759582E-01
   7162.67  3.6344274E-01
   7163.00  3.6978706E-01
   7163.33  3.7656193E-01
   7163.67  3.8359988E-01
   7164.00  3.9080143E-01
   7164.33  3.9805765E-01
   7164.67  4.0525664E-01
   7165.00  4.1232034E-01
   7165.33  4.1915143E-01
   7165.67  4.2572693E-01
   7166.00  4.3202257E-01
   7166.33  4.3799246E-01
   7166.67  4.4367614E-01
   7167.00  4.4907718E-01
   7167.33  4.5416652E-01
   7167.67  4.5899097E-01
   7168.00  4.6356063E-01
   7168.33  4.6785288E-01
   7168.67  4.7190258E-01
   7169.00  4.7571021E-01
   7169.33  4.7924394E-01
   7169.67  4.8253175E-01
   7170.00  4.8557110E-01
   7170.33  4.8832696E-01
   7170.67  4.9082556E-01
   7171.00  4.9305987E-01
   7171.33  4.9498117E-01
   7171.67  4.9659840E-01
   7172.00  4.9788072E-01
