    FDMNES
    energy     <xanes>
   7097.00  4.2958281E-03
   7097.33  4.3800847E-03
   7097.67  4.4675509E-03
   7098.00  4.5584212E-03
   7098.33  4.6534019E-03
   7098.67  4.7523134E-03
   7099.00  4.8554181E-03
   7099.33  4.9636221E-03
   7099.67  5.0767400E-03
   7100.00  5.1951363E-03
   7100.33  5.3200077E-03
   7100.67  5.4511768E-03
   7101.00  5.5891687E-03
   7101.33  5.7356196E-03
   7101.67  5.8903925E-03
   7102.00  6.0542768E-03
   7102.33  6.2296076E-03
   7102.67  6.4163616E-03
   7103.00  6.6157883E-03
   7103.33  6.8314028E-03
   7103.67  7.0634669E-03
   7104.00  7.3140889E-03
   7104.33  7.5889268E-03
   7104.67  7.8889528E-03
   7105.00  8.2180209E-03
   7105.33  8.5860572E-03
   7105.67  8.9958941E-03
   7106.00  9.4553490E-03
   7106.33  9.9839336E-03
   7106.67  1.0589868E-02
   7107.00  1.1291401E-02
   7107.33  1.2133412E-02
   7107.67  1.3142500E-02
   7108.00  1.4370780E-02
   7108.33  1.5948358E-02
   7108.67  1.7983186E-02
   7109.00  2.0678694E-02
   7109.33  2.4579931E-02
   7109.67  3.0339532E-02
   7110.00  3.9246826E-02
   7110.33  5.5006309E-02
   7110.67  8.0918814E-02
   7111.00  1.1406468E-01
   7111.33  1.3595415E-01
   7111.67  1.5001135E-01
   7112.00  1.6352120E-01
   7112.33  1.6461154E-01
   7112.67  1.5209192E-01
   7113.00  1.3225348E-01
   7113.33  1.1270641E-01
   7113.67  9.7663924E-02
   7114.00  8.6666510E-02
   7114.33  7.6343992E-02
   7114.67  6.4715833E-02
   7115.00  5.3810346E-02
   7115.33  4.6700534E-02
   7115.67  4.2759784E-02
   7116.00  4.1063655E-02
   7116.33  4.1034049E-02
   7116.67  4.2013751E-02
   7117.00  4.3691028E-02
   7117.33  4.5833430E-02
   7117.67  4.8315154E-02
   7118.00  5.1286189E-02
   7118.33  5.5105393E-02
   7118.67  5.9841575E-02
   7119.00  6.5478956E-02
   7119.33  7.1844029E-02
   7119.67  7.8315986E-02
   7120.00  8.4373129E-02
   7120.33  8.9784332E-02
   7120.67  9.5200771E-02
   7121.00  1.0145432E-01
   7121.33  1.0972894E-01
   7121.67  1.2064882E-01
   7122.00  1.3491025E-01
   7122.33  1.5391369E-01
   7122.67  1.7814073E-01
   7123.00  2.0855088E-01
   7123.33  2.4709684E-01
   7123.67  2.9324543E-01
   7124.00  3.4572727E-01
   7124.33  3.9975603E-01
   7124.67  4.4703621E-01
   7125.00  4.8160339E-01
   7125.33  5.0039608E-01
   7125.67  5.0947596E-01
   7126.00  5.1394490E-01
   7126.33  5.1851064E-01
   7126.67  5.2648674E-01
   7127.00  5.4021823E-01
   7127.33  5.6231576E-01
   7127.67  5.9165567E-01
   7128.00  6.2691911E-01
   7128.33  6.6672949E-01
   7128.67  7.0870870E-01
   7129.00  7.5127289E-01
   7129.33  7.9288558E-01
   7129.67  8.3251054E-01
   7130.00  8.6841715E-01
   7130.33  8.9646047E-01
   7130.67  9.1475478E-01
   7131.00  9.2292054E-01
   7131.33  9.2149808E-01
   7131.67  9.1369344E-01
   7132.00  9.0087893E-01
   7132.33  8.8351084E-01
   7132.67  8.6272455E-01
   7133.00  8.3912625E-01
   7133.33  8.1368218E-01
   7133.67  7.8849357E-01
   7134.00  7.6549396E-01
   7134.33  7.4673090E-01
   7134.67  7.3178629E-01
   7135.00  7.1979676E-01
   7135.33  7.0996584E-01
   7135.67  7.0156135E-01
   7136.00  6.9456503E-01
   7136.33  6.8932173E-01
   7136.67  6.8569891E-01
   7137.00  6.8355546E-01
   7137.33  6.8260424E-01
   7137.67  6.8210188E-01
   7138.00  6.8149819E-01
   7138.33  6.8022082E-01
   7138.67  6.7812120E-01
   7139.00  6.7523531E-01
   7139.33  6.7171392E-01
   7139.67  6.6791586E-01
   7140.00  6.6405392E-01
   7140.33  6.6028774E-01
   7140.67  6.5664106E-01
   7141.00  6.5307231E-01
   7141.33  6.4948736E-01
   7141.67  6.4578405E-01
   7142.00  6.4187966E-01
   7142.33  6.3765181E-01
   7142.67  6.3305662E-01
   7143.00  6.2802750E-01
   7143.33  6.2242569E-01
   7143.67  6.1625035E-01
   7144.00  6.0946322E-01
   7144.33  6.0196791E-01
   7144.67  5.9385722E-01
   7145.00  5.8516754E-01
   7145.33  5.7589635E-01
   7145.67  5.6617643E-01
   7146.00  5.5606875E-01
   7146.33  5.4561628E-01
   7146.67  5.3494207E-01
   7147.00  5.2411641E-01
   7147.33  5.1321195E-01
   7147.67  5.0232364E-01
   7148.00  4.9153284E-01
   7148.33  4.8096885E-01
   7148.67  4.7071801E-01
   7149.00  4.6087657E-01
   7149.33  4.5161097E-01
   7149.67  4.4293980E-01
   7150.00  4.3491245E-01
   7150.33  4.2763992E-01
   7150.67  4.2103185E-01
   7151.00  4.1505824E-01
   7151.33  4.0973143E-01
   7151.67  4.0489230E-01
   7152.00  4.0044607E-01
   7152.33  3.9629993E-01
   7152.67  3.9228784E-01
   7153.00  3.8829905E-01
   7153.33  3.8420952E-01
   7153.67  3.7994817E-01
   7154.00  3.7546816E-01
   7154.33  3.7071207E-01
   7154.67  3.6571076E-01
   7155.00  3.6047984E-01
   7155.33  3.5502472E-01
   7155.67  3.4941368E-01
   7156.00  3.4369661E-01
   7156.33  3.3794395E-01
   7156.67  3.3224929E-01
   7157.00  3.2669629E-01
   7157.33  3.2141083E-01
   7157.67  3.1644969E-01
   7158.00  3.1187541E-01
   7158.33  3.0780204E-01
   7158.67  3.0422049E-01
   7159.00  3.0116588E-01
   7159.33  2.9874827E-01
   7159.67  2.9693891E-01
   7160.00  2.9578007E-01
   7160.33  2.9541763E-01
   7160.67  2.9582564E-01
   7161.00  2.9705473E-01
   7161.33  2.9925284E-01
   7161.67  3.0232686E-01
   7162.00  3.0627292E-01
   7162.33  3.1116583E-01
   7162.67  3.1683272E-01
   7163.00  3.2319205E-01
   7163.33  3.3020074E-01
   7163.67  3.3765524E-01
   7164.00  3.4545219E-01
   7164.33  3.5350341E-01
   7164.67  3.6166876E-01
   7165.00  3.6985812E-01
   7165.33  3.7796464E-01
   7165.67  3.8591116E-01
   7166.00  3.9363563E-01
   7166.33  4.0104948E-01
   7166.67  4.0815399E-01
   7167.00  4.1493472E-01
   7167.33  4.2135093E-01
   7167.67  4.2746010E-01
   7168.00  4.3328447E-01
   7168.33  4.3882158E-01
   7168.67  4.4413210E-01
   7169.00  4.4923666E-01
   7169.33  4.5412895E-01
   7169.67  4.5884058E-01
   7170.00  4.6336971E-01
   7170.33  4.6767876E-01
   7170.67  4.7176588E-01
   7171.00  4.7559505E-01
   7171.33  4.7905844E-01
   7171.67  4.8208228E-01
   7172.00  4.8452560E-01
