    FDMNES
    energy     <xanes>
   7097.00  5.4130323E-03
   7097.33  5.5495377E-03
   7097.67  5.6926127E-03
   7098.00  5.8427202E-03
   7098.33  6.0014115E-03
   7098.67  6.1683999E-03
   7099.00  6.3443205E-03
   7099.33  6.5312188E-03
   7099.67  6.7288054E-03
   7100.00  6.9379738E-03
   7100.33  7.1614912E-03
   7100.67  7.3990983E-03
   7101.00  7.6520907E-03
   7101.33  7.9243254E-03
   7101.67  8.2156458E-03
   7102.00  8.5279976E-03
   7102.33  8.8669528E-03
   7102.67  9.2326152E-03
   7103.00  9.6280340E-03
   7103.33  1.0061614E-02
   7103.67  1.0534074E-02
   7104.00  1.1050446E-02
   7104.33  1.1624103E-02
   7104.67  1.2257219E-02
   7105.00  1.2958652E-02
   7105.33  1.3751177E-02
   7105.67  1.4640550E-02
   7106.00  1.5643740E-02
   7106.33  1.6803180E-02
   7106.67  1.8134244E-02
   7107.00  1.9673399E-02
   7107.33  2.1510244E-02
   7107.67  2.3689947E-02
   7108.00  2.6305223E-02
   7108.33  2.9584761E-02
   7108.67  3.3690402E-02
   7109.00  3.8931636E-02
   7109.33  4.6113083E-02
   7109.67  5.6076421E-02
   7110.00  7.0461775E-02
   7110.33  9.3816725E-02
   7110.67  1.2978616E-01
   7111.00  1.7564041E-01
   7111.33  2.2273489E-01
   7111.67  2.8756580E-01
   7112.00  3.8160976E-01
   7112.33  4.9989547E-01
   7112.67  6.2162670E-01
   7113.00  7.0600023E-01
   7113.33  6.7541943E-01
   7113.67  5.6208898E-01
   7114.00  4.3855404E-01
   7114.33  3.4943298E-01
   7114.67  2.8945556E-01
   7115.00  2.5088895E-01
   7115.33  2.2878332E-01
   7115.67  2.1691022E-01
   7116.00  2.1180562E-01
   7116.33  2.0828442E-01
   7116.67  2.0123646E-01
   7117.00  1.8974474E-01
   7117.33  1.7592204E-01
   7117.67  1.6298389E-01
   7118.00  1.5238120E-01
   7118.33  1.4475927E-01
   7118.67  1.3935592E-01
   7119.00  1.3566161E-01
   7119.33  1.3322360E-01
   7119.67  1.3131316E-01
   7120.00  1.2955673E-01
   7120.33  1.2799547E-01
   7120.67  1.2703078E-01
   7121.00  1.2689616E-01
   7121.33  1.2754810E-01
   7121.67  1.2880091E-01
   7122.00  1.3074750E-01
   7122.33  1.3354851E-01
   7122.67  1.3705515E-01
   7123.00  1.4119145E-01
   7123.33  1.4600904E-01
   7123.67  1.5155210E-01
   7124.00  1.5806071E-01
   7124.33  1.6614767E-01
   7124.67  1.7623730E-01
   7125.00  1.8892586E-01
   7125.33  2.0519612E-01
   7125.67  2.2478148E-01
   7126.00  2.4725326E-01
   7126.33  2.7192510E-01
   7126.67  2.9773803E-01
   7127.00  3.2443302E-01
   7127.33  3.5229507E-01
   7127.67  3.8124032E-01
   7128.00  4.1083954E-01
   7128.33  4.4084130E-01
   7128.67  4.7274971E-01
   7129.00  5.0927441E-01
   7129.33  5.5337842E-01
   7129.67  6.0316579E-01
   7130.00  6.5565921E-01
   7130.33  7.0715266E-01
   7130.67  7.5618862E-01
   7131.00  8.0349689E-01
   7131.33  8.5123093E-01
   7131.67  9.0103506E-01
   7132.00  9.5294515E-01
   7132.33  1.0046182E+00
   7132.67  1.0511086E+00
   7133.00  1.0866290E+00
   7133.33  1.1023916E+00
   7133.67  1.0967240E+00
   7134.00  1.0698084E+00
   7134.33  1.0234690E+00
   7134.67  9.6604101E-01
   7135.00  9.0287899E-01
   7135.33  8.3885383E-01
   7135.67  7.7731482E-01
   7136.00  7.1991656E-01
   7136.33  6.6838020E-01
   7136.67  6.2260239E-01
   7137.00  5.8284555E-01
   7137.33  5.5006079E-01
   7137.67  5.2352470E-01
   7138.00  5.0313454E-01
   7138.33  4.8922210E-01
   7138.67  4.8032828E-01
   7139.00  4.7556844E-01
   7139.33  4.7416130E-01
   7139.67  4.7469985E-01
   7140.00  4.7654960E-01
   7140.33  4.7942888E-01
   7140.67  4.8311383E-01
   7141.00  4.8763089E-01
   7141.33  4.9314497E-01
   7141.67  4.9955005E-01
   7142.00  5.0678422E-01
   7142.33  5.1478199E-01
   7142.67  5.2323907E-01
   7143.00  5.3193058E-01
   7143.33  5.4057313E-01
   7143.67  5.4890376E-01
   7144.00  5.5671818E-01
   7144.33  5.6373696E-01
   7144.67  5.6991676E-01
   7145.00  5.7519275E-01
   7145.33  5.7942498E-01
   7145.67  5.8275047E-01
   7146.00  5.8521181E-01
   7146.33  5.8677451E-01
   7146.67  5.8761459E-01
   7147.00  5.8780283E-01
   7147.33  5.8735254E-01
   7147.67  5.8641688E-01
   7148.00  5.8506242E-01
   7148.33  5.8331867E-01
   7148.67  5.8129795E-01
   7149.00  5.7905765E-01
   7149.33  5.7664531E-01
   7149.67  5.7414049E-01
   7150.00  5.7159007E-01
   7150.33  5.6905121E-01
   7150.67  5.6658171E-01
   7151.00  5.6423487E-01
   7151.33  5.6209959E-01
   7151.67  5.6022142E-01
   7152.00  5.5866159E-01
   7152.33  5.5753993E-01
   7152.67  5.5687410E-01
   7153.00  5.5671220E-01
   7153.33  5.5716190E-01
   7153.67  5.5817033E-01
   7154.00  5.5972488E-01
   7154.33  5.6183962E-01
   7154.67  5.6436893E-01
   7155.00  5.6721642E-01
   7155.33  5.7027095E-01
   7155.67  5.7336249E-01
   7156.00  5.7636423E-01
   7156.33  5.7911052E-01
   7156.67  5.8151290E-01
   7157.00  5.8349231E-01
   7157.33  5.8492294E-01
   7157.67  5.8582941E-01
   7158.00  5.8620019E-01
   7158.33  5.8597304E-01
   7158.67  5.8523282E-01
   7159.00  5.8400315E-01
   7159.33  5.8225989E-01
   7159.67  5.8009610E-01
   7160.00  5.7754256E-01
   7160.33  5.7458664E-01
   7160.67  5.7130209E-01
   7161.00  5.6771570E-01
   7161.33  5.6382357E-01
   7161.67  5.5968113E-01
   7162.00  5.5530636E-01
   7162.33  5.5069835E-01
   7162.67  5.4590742E-01
   7163.00  5.4095268E-01
   7163.33  5.3583571E-01
   7163.67  5.3059098E-01
   7164.00  5.2523007E-01
   7164.33  5.1974901E-01
   7164.67  5.1416771E-01
   7165.00  5.0849135E-01
   7165.33  5.0271431E-01
   7165.67  4.9685524E-01
   7166.00  4.9092391E-01
   7166.33  4.8492820E-01
   7166.67  4.7889547E-01
   7167.00  4.7284851E-01
   7167.33  4.6682222E-01
   7167.67  4.6085213E-01
   7168.00  4.5497613E-01
   7168.33  4.4926201E-01
   7168.67  4.4373916E-01
   7169.00  4.3844330E-01
   7169.33  4.3344322E-01
   7169.67  4.2873711E-01
   7170.00  4.2434832E-01
   7170.33  4.2034184E-01
   7170.67  4.1669369E-01
   7171.00  4.1341976E-01
   7171.33  4.1059478E-01
   7171.67  4.0821207E-01
   7172.00  4.0632469E-01
