    FDMNES
    energy     <xanes>
   7097.00  4.2700816E-03
   7097.33  4.3532607E-03
   7097.67  4.4394034E-03
   7098.00  4.5286686E-03
   7098.33  4.6216730E-03
   7098.67  4.7182214E-03
   7099.00  4.8185197E-03
   7099.33  4.9233323E-03
   7099.67  5.0324474E-03
   7100.00  5.1461384E-03
   7100.33  5.2653734E-03
   7100.67  5.3899289E-03
   7101.00  5.5201789E-03
   7101.33  5.6573830E-03
   7101.67  5.8013188E-03
   7102.00  5.9525173E-03
   7102.33  6.1126751E-03
   7102.67  6.2816025E-03
   7103.00  6.4600895E-03
   7103.33  6.6505267E-03
   7103.67  6.8528331E-03
   7104.00  7.0682581E-03
   7104.33  7.3003772E-03
   7104.67  7.5494110E-03
   7105.00  7.8174982E-03
   7105.33  8.1104408E-03
   7105.67  8.4292836E-03
   7106.00  8.7781005E-03
   7106.33  9.1674414E-03
   7106.67  9.6007745E-03
   7107.00  1.0087092E-02
   7107.33  1.0648984E-02
   7107.67  1.1298190E-02
   7108.00  1.2059238E-02
   7108.33  1.2993818E-02
   7108.67  1.4149942E-02
   7109.00  1.5619821E-02
   7109.33  1.7649808E-02
   7109.67  2.0525636E-02
   7110.00  2.4812718E-02
   7110.33  3.2151928E-02
   7110.67  4.4271931E-02
   7111.00  6.1282094E-02
   7111.33  7.6197045E-02
   7111.67  8.1561454E-02
   7112.00  7.9184666E-02
   7112.33  7.4846274E-02
   7112.67  6.8095807E-02
   7113.00  6.0836887E-02
   7113.33  5.6348538E-02
   7113.67  5.4426702E-02
   7114.00  5.4504918E-02
   7114.33  5.6268929E-02
   7114.67  5.9273999E-02
   7115.00  6.3493252E-02
   7115.33  6.9261537E-02
   7115.67  7.6663201E-02
   7116.00  8.5920473E-02
   7116.33  9.7546205E-02
   7116.67  1.1150463E-01
   7117.00  1.2788882E-01
   7117.33  1.4677251E-01
   7117.67  1.6721044E-01
   7118.00  1.8857131E-01
   7118.33  2.1063765E-01
   7118.67  2.3290535E-01
   7119.00  2.5464645E-01
   7119.33  2.7512271E-01
   7119.67  2.9471233E-01
   7120.00  3.1425710E-01
   7120.33  3.3527612E-01
   7120.67  3.5883165E-01
   7121.00  3.8503312E-01
   7121.33  4.1133555E-01
   7121.67  4.3196184E-01
   7122.00  4.4203759E-01
   7122.33  4.3915547E-01
   7122.67  4.2896527E-01
   7123.00  4.1660797E-01
   7123.33  4.0817420E-01
   7123.67  4.0707578E-01
   7124.00  4.1379357E-01
   7124.33  4.2700798E-01
   7124.67  4.4397117E-01
   7125.00  4.6377551E-01
   7125.33  4.8558879E-01
   7125.67  5.0796265E-01
   7126.00  5.3013178E-01
   7126.33  5.5122779E-01
   7126.67  5.7021484E-01
   7127.00  5.8574735E-01
   7127.33  5.9571891E-01
   7127.67  6.0006628E-01
   7128.00  5.9919139E-01
   7128.33  5.9402513E-01
   7128.67  5.8687235E-01
   7129.00  5.7919906E-01
   7129.33  5.7241188E-01
   7129.67  5.6716727E-01
   7130.00  5.6353659E-01
   7130.33  5.6091743E-01
   7130.67  5.5814901E-01
   7131.00  5.5479442E-01
   7131.33  5.5097880E-01
   7131.67  5.4708069E-01
   7132.00  5.4313833E-01
   7132.33  5.3897228E-01
   7132.67  5.3462173E-01
   7133.00  5.3039685E-01
   7133.33  5.2689871E-01
   7133.67  5.2441415E-01
   7134.00  5.2301339E-01
   7134.33  5.2265531E-01
   7134.67  5.2292653E-01
   7135.00  5.2353798E-01
   7135.33  5.2417425E-01
   7135.67  5.2456619E-01
   7136.00  5.2453823E-01
   7136.33  5.2388130E-01
   7136.67  5.2259278E-01
   7137.00  5.2065229E-01
   7137.33  5.1799539E-01
   7137.67  5.1476251E-01
   7138.00  5.1104148E-01
   7138.33  5.0692515E-01
   7138.67  5.0262252E-01
   7139.00  4.9829031E-01
   7139.33  4.9413958E-01
   7139.67  4.9034062E-01
   7140.00  4.8704962E-01
   7140.33  4.8451782E-01
   7140.67  4.8280567E-01
   7141.00  4.8201553E-01
   7141.33  4.8236247E-01
   7141.67  4.8377107E-01
   7142.00  4.8625111E-01
   7142.33  4.8990145E-01
   7142.67  4.9451344E-01
   7143.00  4.9998282E-01
   7143.33  5.0623931E-01
   7143.67  5.1301448E-01
   7144.00  5.2014719E-01
   7144.33  5.2747544E-01
   7144.67  5.3480946E-01
   7145.00  5.4202702E-01
   7145.33  5.4899491E-01
   7145.67  5.5568343E-01
   7146.00  5.6208520E-01
   7146.33  5.6820943E-01
   7146.67  5.7417079E-01
   7147.00  5.8006320E-01
   7147.33  5.8600485E-01
   7147.67  5.9207773E-01
   7148.00  5.9831552E-01
   7148.33  6.0471077E-01
   7148.67  6.1115106E-01
   7149.00  6.1751248E-01
   7149.33  6.2359770E-01
   7149.67  6.2927950E-01
   7150.00  6.3445173E-01
   7150.33  6.3896361E-01
   7150.67  6.4285932E-01
   7151.00  6.4614073E-01
   7151.33  6.4873932E-01
   7151.67  6.5071912E-01
   7152.00  6.5204062E-01
   7152.33  6.5252715E-01
   7152.67  6.5216365E-01
   7153.00  6.5086604E-01
   7153.33  6.4846455E-01
   7153.67  6.4512091E-01
   7154.00  6.4094560E-01
   7154.33  6.3606060E-01
   7154.67  6.3077299E-01
   7155.00  6.2526507E-01
   7155.33  6.1970597E-01
   7155.67  6.1422830E-01
   7156.00  6.0890499E-01
   7156.33  6.0381260E-01
   7156.67  5.9894953E-01
   7157.00  5.9432140E-01
   7157.33  5.8995055E-01
   7157.67  5.8579479E-01
   7158.00  5.8184079E-01
   7158.33  5.7809453E-01
   7158.67  5.7451445E-01
   7159.00  5.7108492E-01
   7159.33  5.6780523E-01
   7159.67  5.6464174E-01
   7160.00  5.6157981E-01
   7160.33  5.5861324E-01
   7160.67  5.5571528E-01
   7161.00  5.5287183E-01
   7161.33  5.5007055E-01
   7161.67  5.4728998E-01
   7162.00  5.4451586E-01
   7162.33  5.4173010E-01
   7162.67  5.3891650E-01
   7163.00  5.3605891E-01
   7163.33  5.3312960E-01
   7163.67  5.3011673E-01
   7164.00  5.2700338E-01
   7164.33  5.2375437E-01
   7164.67  5.2036380E-01
   7165.00  5.1681288E-01
   7165.33  5.1305659E-01
   7165.67  5.0909655E-01
   7166.00  5.0491626E-01
   7166.33  5.0046959E-01
   7166.67  4.9577378E-01
   7167.00  4.9082277E-01
   7167.33  4.8558631E-01
   7167.67  4.8011112E-01
   7168.00  4.7442303E-01
   7168.33  4.6854661E-01
   7168.67  4.6256383E-01
   7169.00  4.5653641E-01
   7169.33  4.5054550E-01
   7169.67  4.4466532E-01
   7170.00  4.3896059E-01
   7170.33  4.3353154E-01
   7170.67  4.2841236E-01
   7171.00  4.2365973E-01
   7171.33  4.1941123E-01
   7171.67  4.1573778E-01
   7172.00  4.1279431E-01
