    FDMNES
    energy     <xanes>
   7097.00  4.7842458E-03
   7097.33  4.8862167E-03
   7097.67  4.9922976E-03
   7098.00  5.1027407E-03
   7098.33  5.2184538E-03
   7098.67  5.3392086E-03
   7099.00  5.4653425E-03
   7099.33  5.5980178E-03
   7099.67  5.7369947E-03
   7100.00  5.8827377E-03
   7100.33  6.0367740E-03
   7100.67  6.1988673E-03
   7101.00  6.3696784E-03
   7101.33  6.5512786E-03
   7101.67  6.7434698E-03
   7102.00  6.9472306E-03
   7102.33  7.1654824E-03
   7102.67  7.3981445E-03
   7103.00  7.6467386E-03
   7103.33  7.9155919E-03
   7103.67  8.2049275E-03
   7104.00  8.5172583E-03
   7104.33  8.8594080E-03
   7104.67  9.2323592E-03
   7105.00  9.6405954E-03
   7105.33  1.0095787E-02
   7105.67  1.0600895E-02
   7106.00  1.1164764E-02
   7106.33  1.1809648E-02
   7106.67  1.2544163E-02
   7107.00  1.3388314E-02
   7107.33  1.4391505E-02
   7107.67  1.5581257E-02
   7108.00  1.7012720E-02
   7108.33  1.8823460E-02
   7108.67  2.1122728E-02
   7109.00  2.4117941E-02
   7109.33  2.8362276E-02
   7109.67  3.4501125E-02
   7110.00  4.3805080E-02
   7110.33  5.9820959E-02
   7110.67  8.4815601E-02
   7111.00  1.1321674E-01
   7111.33  1.3496584E-01
   7111.67  1.7229022E-01
   7112.00  2.3203871E-01
   7112.33  2.5671742E-01
   7112.67  2.1739422E-01
   7113.00  1.6154519E-01
   7113.33  1.2152218E-01
   7113.67  9.6605158E-02
   7114.00  8.2721967E-02
   7114.33  7.6084533E-02
   7114.67  7.2937200E-02
   7115.00  7.2063049E-02
   7115.33  7.3474220E-02
   7115.67  7.7109527E-02
   7116.00  8.3186033E-02
   7116.33  9.2391210E-02
   7116.67  1.0472600E-01
   7117.00  1.2014668E-01
   7117.33  1.3768580E-01
   7117.67  1.5598308E-01
   7118.00  1.7590273E-01
   7118.33  1.9809877E-01
   7118.67  2.2113016E-01
   7119.00  2.4389761E-01
   7119.33  2.6588615E-01
   7119.67  2.8767416E-01
   7120.00  3.0943650E-01
   7120.33  3.3043145E-01
   7120.67  3.4957664E-01
   7121.00  3.6594368E-01
   7121.33  3.7847113E-01
   7121.67  3.8748270E-01
   7122.00  3.9336658E-01
   7122.33  3.9772876E-01
   7122.67  4.0553099E-01
   7123.00  4.2248164E-01
   7123.33  4.5134087E-01
   7123.67  4.8495389E-01
   7124.00  5.1967673E-01
   7124.33  5.5599721E-01
   7124.67  5.9368677E-01
   7125.00  6.3062398E-01
   7125.33  6.6198408E-01
   7125.67  6.8394719E-01
   7126.00  6.9469654E-01
   7126.33  6.9460968E-01
   7126.67  6.8886269E-01
   7127.00  6.8056336E-01
   7127.33  6.7172209E-01
   7127.67  6.6307687E-01
   7128.00  6.5458121E-01
   7128.33  6.4591288E-01
   7128.67  6.3682743E-01
   7129.00  6.2730422E-01
   7129.33  6.1772241E-01
   7129.67  6.0897952E-01
   7130.00  6.0206699E-01
   7130.33  5.9825326E-01
   7130.67  5.9746855E-01
   7131.00  5.9933976E-01
   7131.33  6.0316555E-01
   7131.67  6.0764552E-01
   7132.00  6.1194885E-01
   7132.33  6.1536456E-01
   7132.67  6.1784318E-01
   7133.00  6.1948714E-01
   7133.33  6.2037546E-01
   7133.67  6.2073539E-01
   7134.00  6.2070178E-01
   7134.33  6.2044181E-01
   7134.67  6.2017967E-01
   7135.00  6.2003100E-01
   7135.33  6.2006712E-01
   7135.67  6.2029775E-01
   7136.00  6.2072248E-01
   7136.33  6.2129979E-01
   7136.67  6.2190106E-01
   7137.00  6.2240238E-01
   7137.33  6.2261720E-01
   7137.67  6.2243979E-01
   7138.00  6.2177508E-01
   7138.33  6.2046323E-01
   7138.67  6.1851544E-01
   7139.00  6.1590417E-01
   7139.33  6.1254080E-01
   7139.67  6.0852671E-01
   7140.00  6.0389172E-01
   7140.33  5.9861239E-01
   7140.67  5.9281738E-01
   7141.00  5.8655907E-01
   7141.33  5.7984828E-01
   7141.67  5.7279320E-01
   7142.00  5.6543919E-01
   7142.33  5.5780306E-01
   7142.67  5.4996116E-01
   7143.00  5.4195076E-01
   7143.33  5.3379810E-01
   7143.67  5.2556006E-01
   7144.00  5.1727155E-01
   7144.33  5.0897130E-01
   7144.67  5.0070061E-01
   7145.00  4.9249431E-01
   7145.33  4.8440609E-01
   7145.67  4.7646431E-01
   7146.00  4.6870608E-01
   7146.33  4.6120454E-01
   7146.67  4.5397816E-01
   7147.00  4.4706949E-01
   7147.33  4.4057545E-01
   7147.67  4.3450106E-01
   7148.00  4.2888813E-01
   7148.33  4.2384063E-01
   7148.67  4.1932369E-01
   7149.00  4.1534577E-01
   7149.33  4.1195671E-01
   7149.67  4.0904586E-01
   7150.00  4.0655238E-01
   7150.33  4.0442498E-01
   7150.67  4.0251762E-01
   7151.00  4.0073744E-01
   7151.33  3.9899085E-01
   7151.67  3.9720353E-01
   7152.00  3.9533876E-01
   7152.33  3.9336728E-01
   7152.67  3.9130598E-01
   7153.00  3.8917347E-01
   7153.33  3.8699830E-01
   7153.67  3.8482488E-01
   7154.00  3.8268821E-01
   7154.33  3.8063890E-01
   7154.67  3.7870640E-01
   7155.00  3.7692018E-01
   7155.33  3.7532911E-01
   7155.67  3.7392522E-01
   7156.00  3.7271506E-01
   7156.33  3.7173176E-01
   7156.67  3.7095637E-01
   7157.00  3.7039204E-01
   7157.33  3.7006740E-01
   7157.67  3.6995731E-01
   7158.00  3.7006263E-01
   7158.33  3.7041090E-01
   7158.67  3.7097603E-01
   7159.00  3.7175964E-01
   7159.33  3.7279176E-01
   7159.67  3.7404741E-01
   7160.00  3.7552927E-01
   7160.33  3.7727017E-01
   7160.67  3.7924586E-01
   7161.00  3.8145992E-01
   7161.33  3.8394621E-01
   7161.67  3.8667685E-01
   7162.00  3.8965227E-01
   7162.33  3.9290071E-01
   7162.67  3.9638446E-01
   7163.00  4.0009182E-01
   7163.33  4.0403022E-01
   7163.67  4.0815130E-01
   7164.00  4.1243190E-01
   7164.33  4.1685726E-01
   7164.67  4.2137673E-01
   7165.00  4.2595872E-01
   7165.33  4.3056909E-01
   7165.67  4.3516785E-01
   7166.00  4.3972439E-01
   7166.33  4.4419593E-01
   7166.67  4.4856207E-01
   7167.00  4.5280062E-01
   7167.33  4.5687146E-01
   7167.67  4.6077640E-01
   7168.00  4.6450451E-01
   7168.33  4.6802362E-01
   7168.67  4.7135140E-01
   7169.00  4.7448509E-01
   7169.33  4.7739930E-01
   7169.67  4.8011917E-01
   7170.00  4.8264596E-01
   7170.33  4.8495685E-01
   7170.67  4.8707497E-01
   7171.00  4.8899587E-01
   7171.33  4.9067919E-01
   7171.67  4.9211975E-01
   7172.00  4.9327479E-01
