    FDMNES
    energy     <xanes>
   7097.00  5.0333737E-03
   7097.33  5.1511343E-03
   7097.67  5.2741703E-03
   7098.00  5.4028331E-03
   7098.33  5.5383338E-03
   7098.67  5.6804145E-03
   7099.00  5.8295511E-03
   7099.33  5.9873187E-03
   7099.67  6.1534493E-03
   7100.00  6.3286038E-03
   7100.33  6.5148818E-03
   7100.67  6.7120259E-03
   7101.00  6.9209817E-03
   7101.33  7.1446305E-03
   7101.67  7.3827723E-03
   7102.00  7.6368077E-03
   7102.33  7.9108318E-03
   7102.67  8.2048055E-03
   7103.00  8.5208932E-03
   7103.33  8.8651694E-03
   7103.67  9.2379903E-03
   7104.00  9.6428791E-03
   7104.33  1.0089342E-02
   7104.67  1.0578685E-02
   7105.00  1.1117037E-02
   7105.33  1.1720333E-02
   7105.67  1.2392257E-02
   7106.00  1.3144431E-02
   7106.33  1.4006157E-02
   7106.67  1.4987595E-02
   7107.00  1.6113608E-02
   7107.33  1.7445646E-02
   7107.67  1.9014312E-02
   7108.00  2.0883219E-02
   7108.33  2.3210153E-02
   7108.67  2.6108298E-02
   7109.00  2.9795417E-02
   7109.33  3.4842904E-02
   7109.67  4.1866898E-02
   7110.00  5.2078114E-02
   7110.33  6.8889158E-02
   7110.67  9.5263509E-02
   7111.00  1.2938001E-01
   7111.33  1.5984332E-01
   7111.67  1.9144031E-01
   7112.00  2.3242290E-01
   7112.33  2.8158711E-01
   7112.67  3.2467037E-01
   7113.00  3.5387347E-01
   7113.33  3.8121472E-01
   7113.67  4.0741514E-01
   7114.00  4.1547400E-01
   7114.33  3.9801027E-01
   7114.67  3.7336646E-01
   7115.00  3.5296192E-01
   7115.33  3.3591137E-01
   7115.67  3.1355953E-01
   7116.00  2.8479225E-01
   7116.33  2.5505533E-01
   7116.67  2.2908777E-01
   7117.00  2.0794821E-01
   7117.33  1.9165642E-01
   7117.67  1.7873376E-01
   7118.00  1.6838814E-01
   7118.33  1.6000583E-01
   7118.67  1.5275849E-01
   7119.00  1.4635867E-01
   7119.33  1.4074681E-01
   7119.67  1.3579283E-01
   7120.00  1.3158716E-01
   7120.33  1.2857832E-01
   7120.67  1.2698315E-01
   7121.00  1.2689216E-01
   7121.33  1.2828653E-01
   7121.67  1.3066057E-01
   7122.00  1.3374154E-01
   7122.33  1.3746167E-01
   7122.67  1.4184512E-01
   7123.00  1.4711511E-01
   7123.33  1.5379311E-01
   7123.67  1.6217274E-01
   7124.00  1.7269809E-01
   7124.33  1.8625608E-01
   7124.67  2.0294746E-01
   7125.00  2.2278069E-01
   7125.33  2.4528276E-01
   7125.67  2.6915863E-01
   7126.00  2.9449810E-01
   7126.33  3.2267332E-01
   7126.67  3.5376766E-01
   7127.00  3.8672329E-01
   7127.33  4.1852137E-01
   7127.67  4.4656561E-01
   7128.00  4.7103544E-01
   7128.33  4.9505025E-01
   7128.67  5.2195337E-01
   7129.00  5.5293853E-01
   7129.33  5.8781441E-01
   7129.67  6.2453984E-01
   7130.00  6.6221953E-01
   7130.33  7.0073055E-01
   7130.67  7.3947211E-01
   7131.00  7.7735604E-01
   7131.33  8.1286903E-01
   7131.67  8.4585799E-01
   7132.00  8.7663310E-01
   7132.33  9.0539524E-01
   7132.67  9.3196056E-01
   7133.00  9.5485984E-01
   7133.33  9.7031925E-01
   7133.67  9.7566407E-01
   7134.00  9.6840556E-01
   7134.33  9.4562824E-01
   7134.67  9.1029564E-01
   7135.00  8.6522467E-01
   7135.33  8.1395300E-01
   7135.67  7.6109078E-01
   7136.00  7.0916481E-01
   7136.33  6.6047649E-01
   7136.67  6.1583129E-01
   7137.00  5.7585736E-01
   7137.33  5.4168436E-01
   7137.67  5.1296287E-01
   7138.00  4.8979023E-01
   7138.33  4.7272811E-01
   7138.67  4.6069986E-01
   7139.00  4.5315549E-01
   7139.33  4.4974947E-01
   7139.67  4.4916670E-01
   7140.00  4.5073349E-01
   7140.33  4.5400669E-01
   7140.67  4.5835910E-01
   7141.00  4.6355967E-01
   7141.33  4.6955111E-01
   7141.67  4.7617644E-01
   7142.00  4.8339461E-01
   7142.33  4.9120740E-01
   7142.67  4.9944398E-01
   7143.00  5.0797604E-01
   7143.33  5.1663001E-01
   7143.67  5.2518131E-01
   7144.00  5.3344586E-01
   7144.33  5.4116512E-01
   7144.67  5.4823581E-01
   7145.00  5.5455332E-01
   7145.33  5.5993877E-01
   7145.67  5.6446862E-01
   7146.00  5.6815357E-01
   7146.33  5.7093898E-01
   7146.67  5.7299505E-01
   7147.00  5.7439174E-01
   7147.33  5.7514436E-01
   7147.67  5.7541525E-01
   7148.00  5.7528305E-01
   7148.33  5.7479723E-01
   7148.67  5.7407880E-01
   7149.00  5.7319456E-01
   7149.33  5.7221229E-01
   7149.67  5.7121939E-01
   7150.00  5.7027568E-01
   7150.33  5.6946138E-01
   7150.67  5.6882627E-01
   7151.00  5.6842349E-01
   7151.33  5.6834762E-01
   7151.67  5.6861383E-01
   7152.00  5.6925813E-01
   7152.33  5.7036026E-01
   7152.67  5.7187935E-01
   7153.00  5.7380517E-01
   7153.33  5.7614777E-01
   7153.67  5.7879842E-01
   7154.00  5.8168488E-01
   7154.33  5.8472338E-01
   7154.67  5.8778465E-01
   7155.00  5.9076854E-01
   7155.33  5.9354071E-01
   7155.67  5.9602918E-01
   7156.00  5.9816822E-01
   7156.33  5.9985200E-01
   7156.67  6.0109850E-01
   7157.00  6.0189607E-01
   7157.33  6.0219090E-01
   7157.67  6.0205209E-01
   7158.00  6.0149365E-01
   7158.33  6.0048350E-01
   7158.67  5.9909328E-01
   7159.00  5.9734058E-01
   7159.33  5.9519934E-01
   7159.67  5.9272605E-01
   7160.00  5.8992922E-01
   7160.33  5.8677573E-01
   7160.67  5.8331040E-01
   7161.00  5.7954018E-01
   7161.33  5.7544088E-01
   7161.67  5.7106332E-01
   7162.00  5.6642310E-01
   7162.33  5.6151887E-01
   7162.67  5.5641508E-01
   7163.00  5.5114478E-01
   7163.33  5.4573158E-01
   7163.67  5.4023016E-01
   7164.00  5.3467021E-01
   7164.33  5.2907552E-01
   7164.67  5.2347043E-01
   7165.00  5.1786728E-01
   7165.33  5.1227753E-01
   7165.67  5.0670720E-01
   7166.00  5.0116163E-01
   7166.33  4.9565115E-01
   7166.67  4.9018031E-01
   7167.00  4.8475843E-01
   7167.33  4.7940641E-01
   7167.67  4.7413356E-01
   7168.00  4.6895934E-01
   7168.33  4.6392712E-01
   7168.67  4.5904705E-01
   7169.00  4.5433866E-01
   7169.33  4.4984703E-01
   7169.67  4.4556960E-01
   7170.00  4.4152547E-01
   7170.33  4.3776776E-01
   7170.67  4.3428676E-01
   7171.00  4.3110542E-01
   7171.33  4.2830438E-01
   7171.67  4.2590594E-01
   7172.00  4.2398888E-01
