    FDMNES
    energy     <xanes>
   7097.00  4.6771653E-03
   7097.33  4.7893393E-03
   7097.67  4.9068703E-03
   7098.00  5.0301493E-03
   7098.33  5.1604652E-03
   7098.67  5.2976060E-03
   7099.00  5.4421179E-03
   7099.33  5.5957262E-03
   7099.67  5.7582319E-03
   7100.00  5.9304204E-03
   7100.33  6.1146715E-03
   7100.67  6.3108394E-03
   7101.00  6.5200938E-03
   7101.33  6.7458340E-03
   7101.67  6.9880553E-03
   7102.00  7.2485722E-03
   7102.33  7.5324483E-03
   7102.67  7.8400145E-03
   7103.00  8.1742259E-03
   7103.33  8.5430187E-03
   7103.67  8.9475060E-03
   7104.00  9.3927958E-03
   7104.33  9.8921314E-03
   7104.67  1.0448500E-02
   7105.00  1.1071413E-02
   7105.33  1.1784796E-02
   7105.67  1.2596418E-02
   7106.00  1.3525777E-02
   7106.33  1.4620825E-02
   7106.67  1.5902850E-02
   7107.00  1.7417324E-02
   7107.33  1.9275048E-02
   7107.67  2.1541948E-02
   7108.00  2.4345401E-02
   7108.33  2.8000306E-02
   7108.67  3.2759814E-02
   7109.00  3.9095776E-02
   7109.33  4.8247734E-02
   7109.67  6.1614091E-02
   7110.00  8.1913508E-02
   7110.33  1.1698268E-01
   7110.67  1.7601535E-01
   7111.00  2.6646096E-01
   7111.33  3.8297469E-01
   7111.67  4.8184308E-01
   7112.00  4.9031791E-01
   7112.33  4.0558028E-01
   7112.67  3.3727316E-01
   7113.00  2.9822153E-01
   7113.33  2.4668199E-01
   7113.67  1.8515457E-01
   7114.00  1.3468619E-01
   7114.33  1.0276878E-01
   7114.67  8.2833637E-02
   7115.00  7.1254199E-02
   7115.33  6.4842325E-02
   7115.67  5.9529722E-02
   7116.00  5.5431201E-02
   7116.33  5.2640720E-02
   7116.67  4.9389677E-02
   7117.00  4.5885751E-02
   7117.33  4.3185821E-02
   7117.67  4.1511686E-02
   7118.00  4.0813590E-02
   7118.33  4.1086029E-02
   7118.67  4.2139557E-02
   7119.00  4.3945492E-02
   7119.33  4.6637775E-02
   7119.67  5.0302185E-02
   7120.00  5.5289157E-02
   7120.33  6.2515499E-02
   7120.67  7.2623379E-02
   7121.00  8.6226989E-02
   7121.33  1.0248862E-01
   7121.67  1.1593513E-01
   7122.00  1.2247050E-01
   7122.33  1.2476187E-01
   7122.67  1.2942935E-01
   7123.00  1.3907354E-01
   7123.33  1.5394788E-01
   7123.67  1.6977146E-01
   7124.00  1.8193156E-01
   7124.33  1.8720600E-01
   7124.67  1.8966093E-01
   7125.00  1.9367878E-01
   7125.33  2.0287018E-01
   7125.67  2.1805550E-01
   7126.00  2.4038927E-01
   7126.33  2.7235326E-01
   7126.67  3.1397240E-01
   7127.00  3.6625096E-01
   7127.33  4.3230931E-01
   7127.67  5.1044968E-01
   7128.00  5.9572459E-01
   7128.33  6.7451669E-01
   7128.67  7.3204612E-01
   7129.00  7.5974415E-01
   7129.33  7.5596257E-01
   7129.67  7.3618426E-01
   7130.00  7.1112907E-01
   7130.33  6.8883453E-01
   7130.67  6.7249020E-01
   7131.00  6.6304371E-01
   7131.33  6.6081684E-01
   7131.67  6.6374599E-01
   7132.00  6.7086676E-01
   7132.33  6.8204282E-01
   7132.67  6.9685803E-01
   7133.00  7.1585568E-01
   7133.33  7.4085779E-01
   7133.67  7.7233944E-01
   7134.00  8.1030874E-01
   7134.33  8.5271888E-01
   7134.67  8.9343498E-01
   7135.00  9.2663728E-01
   7135.33  9.4624155E-01
   7135.67  9.5353835E-01
   7136.00  9.5110108E-01
   7136.33  9.4210416E-01
   7136.67  9.3045629E-01
   7137.00  9.1785937E-01
   7137.33  9.0525124E-01
   7137.67  8.9279270E-01
   7138.00  8.8026273E-01
   7138.33  8.6720972E-01
   7138.67  8.5338957E-01
   7139.00  8.3871057E-01
   7139.33  8.2305313E-01
   7139.67  8.0633844E-01
   7140.00  7.8811529E-01
   7140.33  7.6745117E-01
   7140.67  7.4438700E-01
   7141.00  7.1941063E-01
   7141.33  6.9366277E-01
   7141.67  6.6866932E-01
   7142.00  6.4548459E-01
   7142.33  6.2528354E-01
   7142.67  6.0819568E-01
   7143.00  5.9439912E-01
   7143.33  5.8433041E-01
   7143.67  5.7743406E-01
   7144.00  5.7349285E-01
   7144.33  5.7247551E-01
   7144.67  5.7358272E-01
   7145.00  5.7631175E-01
   7145.33  5.8010389E-01
   7145.67  5.8412220E-01
   7146.00  5.8778026E-01
   7146.33  5.9039455E-01
   7146.67  5.9169970E-01
   7147.00  5.9153755E-01
   7147.33  5.8972415E-01
   7147.67  5.8660062E-01
   7148.00  5.8238035E-01
   7148.33  5.7724147E-01
   7148.67  5.7155785E-01
   7149.00  5.6553585E-01
   7149.33  5.5935457E-01
   7149.67  5.5317523E-01
   7150.00  5.4707693E-01
   7150.33  5.4111650E-01
   7150.67  5.3526516E-01
   7151.00  5.2946999E-01
   7151.33  5.2362992E-01
   7151.67  5.1763383E-01
   7152.00  5.1137875E-01
   7152.33  5.0470713E-01
   7152.67  4.9757464E-01
   7153.00  4.8992732E-01
   7153.33  4.8167556E-01
   7153.67  4.7290467E-01
   7154.00  4.6364655E-01
   7154.33  4.5390917E-01
   7154.67  4.4383802E-01
   7155.00  4.3353599E-01
   7155.33  4.2313581E-01
   7155.67  4.1280945E-01
   7156.00  4.0269643E-01
   7156.33  3.9299754E-01
   7156.67  3.8380766E-01
   7157.00  3.7522034E-01
   7157.33  3.6737730E-01
   7157.67  3.6019776E-01
   7158.00  3.5364423E-01
   7158.33  3.4771352E-01
   7158.67  3.4225724E-01
   7159.00  3.3722049E-01
   7159.33  3.3261647E-01
   7159.67  3.2839577E-01
   7160.00  3.2457694E-01
   7160.33  3.2124520E-01
   7160.67  3.1837438E-01
   7161.00  3.1597354E-01
   7161.33  3.1408709E-01
   7161.67  3.1262112E-01
   7162.00  3.1152513E-01
   7162.33  3.1076194E-01
   7162.67  3.1021454E-01
   7163.00  3.0981887E-01
   7163.33  3.0952755E-01
   7163.67  3.0929432E-01
   7164.00  3.0911133E-01
   7164.33  3.0900065E-01
   7164.67  3.0898537E-01
   7165.00  3.0909832E-01
   7165.33  3.0939651E-01
   7165.67  3.0988223E-01
   7166.00  3.1057001E-01
   7166.33  3.1150613E-01
   7166.67  3.1267980E-01
   7167.00  3.1410485E-01
   7167.33  3.1583330E-01
   7167.67  3.1785416E-01
   7168.00  3.2019097E-01
   7168.33  3.2291723E-01
   7168.67  3.2601895E-01
   7169.00  3.2951647E-01
   7169.33  3.3347286E-01
   7169.67  3.3782948E-01
   7170.00  3.4255923E-01
   7170.33  3.4764124E-01
   7170.67  3.5293926E-01
   7171.00  3.5833175E-01
   7171.33  3.6359436E-01
   7171.67  3.6840836E-01
   7172.00  3.7237316E-01
