    FDMNES
    energy     <xanes>
   7097.00  3.9154845E-03
   7097.33  3.9851067E-03
   7097.67  4.0569757E-03
   7098.00  4.1312036E-03
   7098.33  4.2082450E-03
   7098.67  4.2879424E-03
   7099.00  4.3704406E-03
   7099.33  4.4562975E-03
   7099.67  4.5453436E-03
   7100.00  4.6377709E-03
   7100.33  4.7342805E-03
   7100.67  4.8346951E-03
   7101.00  4.9392779E-03
   7101.33  5.0489366E-03
   7101.67  5.1634966E-03
   7102.00  5.2833345E-03
   7102.33  5.4096717E-03
   7102.67  5.5423620E-03
   7103.00  5.6819728E-03
   7103.33  5.8302321E-03
   7103.67  5.9870846E-03
   7104.00  6.1534428E-03
   7104.33  6.3319185E-03
   7104.67  6.5227029E-03
   7105.00  6.7273918E-03
   7105.33  6.9502940E-03
   7105.67  7.1922696E-03
   7106.00  7.4564269E-03
   7106.33  7.7507648E-03
   7106.67  8.0780944E-03
   7107.00  8.4454074E-03
   7107.33  8.8701690E-03
   7107.67  9.3617666E-03
   7108.00  9.9394297E-03
   7108.33  1.0651273E-02
   7108.67  1.1534859E-02
   7109.00  1.2661618E-02
   7109.33  1.4220755E-02
   7109.67  1.6427286E-02
   7110.00  1.9702862E-02
   7110.33  2.5265821E-02
   7110.67  3.4486912E-02
   7111.00  4.8205537E-02
   7111.33  6.4726477E-02
   7111.67  7.5043086E-02
   7112.00  7.0714109E-02
   7112.33  5.8506181E-02
   7112.67  4.9704929E-02
   7113.00  4.7725948E-02
   7113.33  5.3152791E-02
   7113.67  5.8353301E-02
   7114.00  5.4017286E-02
   7114.33  4.3603059E-02
   7114.67  3.5884511E-02
   7115.00  3.1436550E-02
   7115.33  2.9368610E-02
   7115.67  2.8596043E-02
   7116.00  2.8749950E-02
   7116.33  2.9706677E-02
   7116.67  3.1291763E-02
   7117.00  3.3485411E-02
   7117.33  3.6359628E-02
   7117.67  3.9814356E-02
   7118.00  4.3787978E-02
   7118.33  4.8218052E-02
   7118.67  5.2905458E-02
   7119.00  5.7649814E-02
   7119.33  6.2180012E-02
   7119.67  6.6524136E-02
   7120.00  7.0950655E-02
   7120.33  7.6019618E-02
   7120.67  8.2197832E-02
   7121.00  8.9910482E-02
   7121.33  9.9772842E-02
   7121.67  1.1161867E-01
   7122.00  1.2502776E-01
   7122.33  1.3917041E-01
   7122.67  1.5412771E-01
   7123.00  1.7202549E-01
   7123.33  1.9737582E-01
   7123.67  2.3253958E-01
   7124.00  2.7887508E-01
   7124.33  3.3597247E-01
   7124.67  3.9700599E-01
   7125.00  4.5601843E-01
   7125.33  5.0977102E-01
   7125.67  5.6378769E-01
   7126.00  6.2447653E-01
   7126.33  6.9474711E-01
   7126.67  7.6437600E-01
   7127.00  8.1967105E-01
   7127.33  8.4690136E-01
   7127.67  8.5060000E-01
   7128.00  8.3809768E-01
   7128.33  8.1780268E-01
   7128.67  7.9703778E-01
   7129.00  7.7841178E-01
   7129.33  7.6308362E-01
   7129.67  7.5078347E-01
   7130.00  7.4182924E-01
   7130.33  7.3732365E-01
   7130.67  7.3722422E-01
   7131.00  7.4148590E-01
   7131.33  7.4974821E-01
   7131.67  7.6013014E-01
   7132.00  7.7145516E-01
   7132.33  7.8307972E-01
   7132.67  7.9478944E-01
   7133.00  8.0620750E-01
   7133.33  8.1619626E-01
   7133.67  8.2367663E-01
   7134.00  8.2772318E-01
   7134.33  8.2722206E-01
   7134.67  8.2270671E-01
   7135.00  8.1460537E-01
   7135.33  8.0316674E-01
   7135.67  7.8919565E-01
   7136.00  7.7289699E-01
   7136.33  7.5428631E-01
   7136.67  7.3414930E-01
   7137.00  7.1317750E-01
   7137.33  6.9233946E-01
   7137.67  6.7253461E-01
   7138.00  6.5437463E-01
   7138.33  6.3852545E-01
   7138.67  6.2480167E-01
   7139.00  6.1305930E-01
   7139.33  6.0324581E-01
   7139.67  5.9490415E-01
   7140.00  5.8789593E-01
   7140.33  5.8228645E-01
   7140.67  5.7786139E-01
   7141.00  5.7456109E-01
   7141.33  5.7242011E-01
   7141.67  5.7119364E-01
   7142.00  5.7077033E-01
   7142.33  5.7109642E-01
   7142.67  5.7192708E-01
   7143.00  5.7308306E-01
   7143.33  5.7430460E-01
   7143.67  5.7527527E-01
   7144.00  5.7573289E-01
   7144.33  5.7532925E-01
   7144.67  5.7399676E-01
   7145.00  5.7167113E-01
   7145.33  5.6822731E-01
   7145.67  5.6384905E-01
   7146.00  5.5862564E-01
   7146.33  5.5261813E-01
   7146.67  5.4611323E-01
   7147.00  5.3931600E-01
   7147.33  5.3246843E-01
   7147.67  5.2577220E-01
   7148.00  5.1930383E-01
   7148.33  5.1307316E-01
   7148.67  5.0696816E-01
   7149.00  5.0090438E-01
   7149.33  4.9481499E-01
   7149.67  4.8869911E-01
   7150.00  4.8259368E-01
   7150.33  4.7656417E-01
   7150.67  4.7063607E-01
   7151.00  4.6479695E-01
   7151.33  4.5897597E-01
   7151.67  4.5304658E-01
   7152.00  4.4688077E-01
   7152.33  4.4028674E-01
   7152.67  4.3320045E-01
   7153.00  4.2556353E-01
   7153.33  4.1727795E-01
   7153.67  4.0842800E-01
   7154.00  3.9904958E-01
   7154.33  3.8915211E-01
   7154.67  3.7888573E-01
   7155.00  3.6834856E-01
   7155.33  3.5765431E-01
   7155.67  3.4696761E-01
   7156.00  3.3642901E-01
   7156.33  3.2624934E-01
   7156.67  3.1655595E-01
   7157.00  3.0748457E-01
   7157.33  2.9927171E-01
   7157.67  2.9193949E-01
   7158.00  2.8556835E-01
   7158.33  2.8035456E-01
   7158.67  2.7620743E-01
   7159.00  2.7313670E-01
   7159.33  2.7126035E-01
   7159.67  2.7040605E-01
   7160.00  2.7052571E-01
   7160.33  2.7166525E-01
   7160.67  2.7363614E-01
   7161.00  2.7637004E-01
   7161.33  2.7986786E-01
   7161.67  2.8395669E-01
   7162.00  2.8856061E-01
   7162.33  2.9364776E-01
   7162.67  2.9908298E-01
   7163.00  3.0480151E-01
   7163.33  3.1076364E-01
   7163.67  3.1688565E-01
   7164.00  3.2312652E-01
   7164.33  3.2945550E-01
   7164.67  3.3582676E-01
   7165.00  3.4221044E-01
   7165.33  3.4856855E-01
   7165.67  3.5486737E-01
   7166.00  3.6107424E-01
   7166.33  3.6713559E-01
   7166.67  3.7303352E-01
   7167.00  3.7874340E-01
   7167.33  3.8421714E-01
   7167.67  3.8946761E-01
   7168.00  3.9449232E-01
   7168.33  3.9927338E-01
   7168.67  4.0385789E-01
   7169.00  4.0826892E-01
   7169.33  4.1251905E-01
   7169.67  4.1665580E-01
   7170.00  4.2069994E-01
   7170.33  4.2465552E-01
   7170.67  4.2852807E-01
   7171.00  4.3229111E-01
   7171.33  4.3584603E-01
   7171.67  4.3905766E-01
   7172.00  4.4171012E-01
