    FDMNES
    energy     <xanes>
   7097.00  3.7382676E-03
   7097.33  3.8101411E-03
   7097.67  3.8846987E-03
   7098.00  3.9621038E-03
   7098.33  4.0429486E-03
   7098.67  4.1270844E-03
   7099.00  4.2147329E-03
   7099.33  4.3066567E-03
   7099.67  4.4027040E-03
   7100.00  4.5031853E-03
   7100.33  4.6091127E-03
   7100.67  4.7203450E-03
   7101.00  4.8373328E-03
   7101.33  4.9614699E-03
   7101.67  5.0926553E-03
   7102.00  5.2315732E-03
   7102.33  5.3802306E-03
   7102.67  5.5386349E-03
   7103.00  5.7078810E-03
   7103.33  5.8910226E-03
   7103.67  6.0883354E-03
   7104.00  6.3016889E-03
   7104.33  6.5360603E-03
   7104.67  6.7923901E-03
   7105.00  7.0741398E-03
   7105.33  7.3901656E-03
   7105.67  7.7431494E-03
   7106.00  8.1402058E-03
   7106.33  8.5990099E-03
   7106.67  9.1273027E-03
   7107.00  9.7419093E-03
   7107.33  1.0484105E-02
   7107.67  1.1378935E-02
   7108.00  1.2474985E-02
   7108.33  1.3893381E-02
   7108.67  1.5735656E-02
   7109.00  1.8192183E-02
   7109.33  2.1771699E-02
   7109.67  2.7081314E-02
   7110.00  3.5316609E-02
   7110.33  4.9938222E-02
   7110.67  7.4478440E-02
   7111.00  1.0871548E-01
   7111.33  1.3979847E-01
   7111.67  1.5341758E-01
   7112.00  1.4264103E-01
   7112.33  1.2122235E-01
   7112.67  1.0176164E-01
   7113.00  8.3423187E-02
   7113.33  6.9517486E-02
   7113.67  6.3683022E-02
   7114.00  6.7348005E-02
   7114.33  7.8083775E-02
   7114.67  7.8649301E-02
   7115.00  6.3672171E-02
   7115.33  4.9034908E-02
   7115.67  4.0049396E-02
   7116.00  3.4986943E-02
   7116.33  3.2296163E-02
   7116.67  3.0783549E-02
   7117.00  3.0065164E-02
   7117.33  2.9964644E-02
   7117.67  3.0258561E-02
   7118.00  3.0865668E-02
   7118.33  3.1770580E-02
   7118.67  3.2916359E-02
   7119.00  3.4304489E-02
   7119.33  3.6013871E-02
   7119.67  3.8095513E-02
   7120.00  4.0643612E-02
   7120.33  4.3844217E-02
   7120.67  4.7715448E-02
   7121.00  5.2269013E-02
   7121.33  5.7444567E-02
   7121.67  6.3038263E-02
   7122.00  6.9219196E-02
   7122.33  7.6666569E-02
   7122.67  8.5877033E-02
   7123.00  9.7361437E-02
   7123.33  1.1188700E-01
   7123.67  1.2916221E-01
   7124.00  1.4887320E-01
   7124.33  1.7063723E-01
   7124.67  1.9356061E-01
   7125.00  2.1736474E-01
   7125.33  2.4246586E-01
   7125.67  2.6918977E-01
   7126.00  2.9778068E-01
   7126.33  3.2828575E-01
   7126.67  3.5844490E-01
   7127.00  3.8435946E-01
   7127.33  4.0186892E-01
   7127.67  4.1499988E-01
   7128.00  4.2985094E-01
   7128.33  4.5256520E-01
   7128.67  4.8326405E-01
   7129.00  5.2001667E-01
   7129.33  5.5979594E-01
   7129.67  6.0071852E-01
   7130.00  6.4375697E-01
   7130.33  6.9100254E-01
   7130.67  7.4167946E-01
   7131.00  7.9319523E-01
   7131.33  8.4025337E-01
   7131.67  8.7942847E-01
   7132.00  9.0950256E-01
   7132.33  9.2943751E-01
   7132.67  9.4068313E-01
   7133.00  9.4379263E-01
   7133.33  9.4045113E-01
   7133.67  9.3636314E-01
   7134.00  9.3508195E-01
   7134.33  9.3627368E-01
   7134.67  9.3629729E-01
   7135.00  9.3292102E-01
   7135.33  9.2473365E-01
   7135.67  9.1272741E-01
   7136.00  8.9768809E-01
   7136.33  8.8016742E-01
   7136.67  8.6102337E-01
   7137.00  8.4060731E-01
   7137.33  8.1914695E-01
   7137.67  7.9711046E-01
   7138.00  7.7482723E-01
   7138.33  7.5270486E-01
   7138.67  7.3107635E-01
   7139.00  7.1018404E-01
   7139.33  6.9035413E-01
   7139.67  6.7161815E-01
   7140.00  6.5408142E-01
   7140.33  6.3802953E-01
   7140.67  6.2343230E-01
   7141.00  6.1041918E-01
   7141.33  5.9935363E-01
   7141.67  5.9013769E-01
   7142.00  5.8284137E-01
   7142.33  5.7774823E-01
   7142.67  5.7460619E-01
   7143.00  5.7337859E-01
   7143.33  5.7423219E-01
   7143.67  5.7685161E-01
   7144.00  5.8114246E-01
   7144.33  5.8714616E-01
   7144.67  5.9446793E-01
   7145.00  6.0288031E-01
   7145.33  6.1215433E-01
   7145.67  6.2181882E-01
   7146.00  6.3153058E-01
   7146.33  6.4085575E-01
   7146.67  6.4949008E-01
   7147.00  6.5719230E-01
   7147.33  6.6362349E-01
   7147.67  6.6882390E-01
   7148.00  6.7278190E-01
   7148.33  6.7540645E-01
   7148.67  6.7695074E-01
   7149.00  6.7752010E-01
   7149.33  6.7712178E-01
   7149.67  6.7595164E-01
   7150.00  6.7405008E-01
   7150.33  6.7133003E-01
   7150.67  6.6784686E-01
   7151.00  6.6353855E-01
   7151.33  6.5819292E-01
   7151.67  6.5184401E-01
   7152.00  6.4443965E-01
   7152.33  6.3579086E-01
   7152.67  6.2600031E-01
   7153.00  6.1505901E-01
   7153.33  6.0284873E-01
   7153.67  5.8957655E-01
   7154.00  5.7534004E-01
   7154.33  5.6019424E-01
   7154.67  5.4443017E-01
   7155.00  5.2823122E-01
   7155.33  5.1178752E-01
   7155.67  4.9533081E-01
   7156.00  4.7901678E-01
   7156.33  4.6302906E-01
   7156.67  4.4743846E-01
   7157.00  4.3230750E-01
   7157.33  4.1774396E-01
   7157.67  4.0370975E-01
   7158.00  3.9021942E-01
   7158.33  3.7736149E-01
   7158.67  3.6509507E-01
   7159.00  3.5345777E-01
   7159.33  3.4258843E-01
   7159.67  3.3246456E-01
   7160.00  3.2314633E-01
   7160.33  3.1481031E-01
   7160.67  3.0739980E-01
   7161.00  3.0093760E-01
   7161.33  2.9554203E-01
   7161.67  2.9106996E-01
   7162.00  2.8747735E-01
   7162.33  2.8479599E-01
   7162.67  2.8283894E-01
   7163.00  2.8152056E-01
   7163.33  2.8079861E-01
   7163.67  2.8049690E-01
   7164.00  2.8052654E-01
   7164.33  2.8082760E-01
   7164.67  2.8130028E-01
   7165.00  2.8190363E-01
   7165.33  2.8262484E-01
   7165.67  2.8344560E-01
   7166.00  2.8437365E-01
   7166.33  2.8544124E-01
   7166.67  2.8665056E-01
   7167.00  2.8801267E-01
   7167.33  2.8955348E-01
   7167.67  2.9125238E-01
   7168.00  2.9310468E-01
   7168.33  2.9512115E-01
   7168.67  2.9727628E-01
   7169.00  2.9956583E-01
   7169.33  3.0200420E-01
   7169.67  3.0457333E-01
   7170.00  3.0727029E-01
   7170.33  3.1010184E-01
   7170.67  3.1303210E-01
   7171.00  3.1602323E-01
   7171.33  3.1898211E-01
   7171.67  3.2173167E-01
   7172.00  3.2402370E-01
