    FDMNES
    energy     <xanes>
   7097.00  4.1834870E-03
   7097.33  4.2692975E-03
   7097.67  4.3585835E-03
   7098.00  4.4515712E-03
   7098.33  4.5490516E-03
   7098.67  4.6508517E-03
   7099.00  4.7572822E-03
   7099.33  4.8693774E-03
   7099.67  4.9869656E-03
   7100.00  5.1104874E-03
   7100.33  5.2413384E-03
   7100.67  5.3793692E-03
   7101.00  5.5252290E-03
   7101.33  5.6808721E-03
   7101.67  5.8462200E-03
   7102.00  6.0222720E-03
   7102.33  6.2118933E-03
   7102.67  6.4151839E-03
   7103.00  6.6337669E-03
   7103.33  6.8720840E-03
   7103.67  7.1306682E-03
   7104.00  7.4123335E-03
   7104.33  7.7244626E-03
   7104.67  8.0686556E-03
   7105.00  8.4502081E-03
   7105.33  8.8825261E-03
   7105.67  9.3700150E-03
   7106.00  9.9237502E-03
   7106.33  1.0571067E-02
   7106.67  1.1324591E-02
   7107.00  1.2211018E-02
   7107.33  1.3295661E-02
   7107.67  1.4619619E-02
   7108.00  1.6261625E-02
   7108.33  1.8418133E-02
   7108.67  2.1258004E-02
   7109.00  2.5096780E-02
   7109.33  3.0780522E-02
   7109.67  3.9335378E-02
   7110.00  5.2788282E-02
   7110.33  7.7102939E-02
   7110.67  1.1909502E-01
   7111.00  1.8000643E-01
   7111.33  2.2435985E-01
   7111.67  2.2224982E-01
   7112.00  1.9457142E-01
   7112.33  1.5647152E-01
   7112.67  1.2486808E-01
   7113.00  1.0616319E-01
   7113.33  9.4332998E-02
   7113.67  8.4547885E-02
   7114.00  7.6512910E-02
   7114.33  6.7673459E-02
   7114.67  5.7352358E-02
   7115.00  4.7863303E-02
   7115.33  4.1229616E-02
   7115.67  3.6844610E-02
   7116.00  3.4068820E-02
   7116.33  3.2492832E-02
   7116.67  3.1674232E-02
   7117.00  3.1473470E-02
   7117.33  3.1884733E-02
   7117.67  3.2820235E-02
   7118.00  3.4272313E-02
   7118.33  3.6256273E-02
   7118.67  3.8639987E-02
   7119.00  4.1414062E-02
   7119.33  4.4749575E-02
   7119.67  4.8766277E-02
   7120.00  5.3613944E-02
   7120.33  5.9548413E-02
   7120.67  6.6572869E-02
   7121.00  7.4835186E-02
   7121.33  8.4788349E-02
   7121.67  9.6545301E-02
   7122.00  1.1024745E-01
   7122.33  1.2621913E-01
   7122.67  1.4468086E-01
   7123.00  1.6640722E-01
   7123.33  1.9262236E-01
   7123.67  2.2295594E-01
   7124.00  2.5684509E-01
   7124.33  2.9285177E-01
   7124.67  3.2832706E-01
   7125.00  3.6157623E-01
   7125.33  3.9164661E-01
   7125.67  4.1897319E-01
   7126.00  4.4295632E-01
   7126.33  4.6214417E-01
   7126.67  4.7996867E-01
   7127.00  5.0334489E-01
   7127.33  5.3908262E-01
   7127.67  5.8159377E-01
   7128.00  6.2290970E-01
   7128.33  6.5785627E-01
   7128.67  6.9246187E-01
   7129.00  7.3490121E-01
   7129.33  7.9006833E-01
   7129.67  8.4564321E-01
   7130.00  8.8652084E-01
   7130.33  9.0431749E-01
   7130.67  9.0838572E-01
   7131.00  9.0591221E-01
   7131.33  9.0214672E-01
   7131.67  8.9921059E-01
   7132.00  8.9680412E-01
   7132.33  8.9322812E-01
   7132.67  8.8668360E-01
   7133.00  8.7580682E-01
   7133.33  8.5938754E-01
   7133.67  8.3943550E-01
   7134.00  8.1887751E-01
   7134.33  8.0093343E-01
   7134.67  7.8578429E-01
   7135.00  7.7298431E-01
   7135.33  7.6235426E-01
   7135.67  7.5326385E-01
   7136.00  7.4535860E-01
   7136.33  7.3832438E-01
   7136.67  7.3166851E-01
   7137.00  7.2507162E-01
   7137.33  7.1817033E-01
   7137.67  7.1074710E-01
   7138.00  7.0267458E-01
   7138.33  6.9384279E-01
   7138.67  6.8443708E-01
   7139.00  6.7462068E-01
   7139.33  6.6462419E-01
   7139.67  6.5474890E-01
   7140.00  6.4522842E-01
   7140.33  6.3636652E-01
   7140.67  6.2825628E-01
   7141.00  6.2098212E-01
   7141.33  6.1468304E-01
   7141.67  6.0921585E-01
   7142.00  6.0450683E-01
   7142.33  6.0050825E-01
   7142.67  5.9698100E-01
   7143.00  5.9376887E-01
   7143.33  5.9069497E-01
   7143.67  5.8755977E-01
   7144.00  5.8423171E-01
   7144.33  5.8057991E-01
   7144.67  5.7663709E-01
   7145.00  5.7248198E-01
   7145.33  5.6826212E-01
   7145.67  5.6416847E-01
   7146.00  5.6036256E-01
   7146.33  5.5707153E-01
   7146.67  5.5436249E-01
   7147.00  5.5229012E-01
   7147.33  5.5092824E-01
   7147.67  5.5012571E-01
   7148.00  5.4977587E-01
   7148.33  5.4973924E-01
   7148.67  5.4977453E-01
   7149.00  5.4969906E-01
   7149.33  5.4926972E-01
   7149.67  5.4834461E-01
   7150.00  5.4679423E-01
   7150.33  5.4440927E-01
   7150.67  5.4120251E-01
   7151.00  5.3713265E-01
   7151.33  5.3206744E-01
   7151.67  5.2611920E-01
   7152.00  5.1930711E-01
   7152.33  5.1157324E-01
   7152.67  5.0309382E-01
   7153.00  4.9395982E-01
   7153.33  4.8424129E-01
   7153.67  4.7417099E-01
   7154.00  4.6391612E-01
   7154.33  4.5368083E-01
   7154.67  4.4364806E-01
   7155.00  4.3394894E-01
   7155.33  4.2474876E-01
   7155.67  4.1605301E-01
   7156.00  4.0787912E-01
   7156.33  4.0028760E-01
   7156.67  3.9319461E-01
   7157.00  3.8657537E-01
   7157.33  3.8046925E-01
   7157.67  3.7480721E-01
   7158.00  3.6958234E-01
   7158.33  3.6485208E-01
   7158.67  3.6057241E-01
   7159.00  3.5675479E-01
   7159.33  3.5346766E-01
   7159.67  3.5065313E-01
   7160.00  3.4830430E-01
   7160.33  3.4646076E-01
   7160.67  3.4504203E-01
   7161.00  3.4402172E-01
   7161.33  3.4340883E-01
   7161.67  3.4311281E-01
   7162.00  3.4308435E-01
   7162.33  3.4329923E-01
   7162.67  3.4369114E-01
   7163.00  3.4422877E-01
   7163.33  3.4489234E-01
   7163.67  3.4563906E-01
   7164.00  3.4644963E-01
   7164.33  3.4731447E-01
   7164.67  3.4821907E-01
   7165.00  3.4916152E-01
   7165.33  3.5014990E-01
   7165.67  3.5118696E-01
   7166.00  3.5228284E-01
   7166.33  3.5346149E-01
   7166.67  3.5473061E-01
   7167.00  3.5610598E-01
   7167.33  3.5762245E-01
   7167.67  3.5928276E-01
   7168.00  3.6110075E-01
   7168.33  3.6311081E-01
   7168.67  3.6529983E-01
   7169.00  3.6767007E-01
   7169.33  3.7023967E-01
   7169.67  3.7297386E-01
   7170.00  3.7585377E-01
   7170.33  3.7886131E-01
   7170.67  3.8193589E-01
   7171.00  3.8502074E-01
   7171.33  3.8800271E-01
   7171.67  3.9072155E-01
   7172.00  3.9296135E-01
