    FDMNES
    energy     <xanes>
   7097.00  4.7270988E-03
   7097.33  4.8422925E-03
   7097.67  4.9628130E-03
   7098.00  5.0890248E-03
   7098.33  5.2221676E-03
   7098.67  5.3619946E-03
   7099.00  5.5090034E-03
   7099.33  5.6648181E-03
   7099.67  5.8291868E-03
   7100.00  6.0028061E-03
   7100.33  6.1878596E-03
   7100.67  6.3841147E-03
   7101.00  6.5925773E-03
   7101.33  6.8162728E-03
   7101.67  7.0550431E-03
   7102.00  7.3103934E-03
   7102.33  7.5866706E-03
   7102.67  7.8839117E-03
   7103.00  8.2044689E-03
   7103.33  8.5548683E-03
   7103.67  8.9356151E-03
   7104.00  9.3505843E-03
   7104.33  9.8101235E-03
   7104.67  1.0315853E-02
   7105.00  1.0874593E-02
   7105.33  1.1503932E-02
   7105.67  1.2208258E-02
   7106.00  1.3000656E-02
   7106.33  1.3913899E-02
   7106.67  1.4959855E-02
   7107.00  1.6166743E-02
   7107.33  1.7603961E-02
   7107.67  1.9306681E-02
   7108.00  2.1347035E-02
   7108.33  2.3903039E-02
   7108.67  2.7101347E-02
   7109.00  3.1183689E-02
   7109.33  3.6777736E-02
   7109.67  4.4538577E-02
   7110.00  5.5741306E-02
   7110.33  7.3979002E-02
   7110.67  1.0284875E-01
   7111.00  1.4313523E-01
   7111.33  1.8727297E-01
   7111.67  2.3551824E-01
   7112.00  2.9591619E-01
   7112.33  3.6638670E-01
   7112.67  4.2510385E-01
   7113.00  4.5547713E-01
   7113.33  4.5628324E-01
   7113.67  4.3470520E-01
   7114.00  3.9131507E-01
   7114.33  3.3579722E-01
   7114.67  2.7797015E-01
   7115.00  2.2415296E-01
   7115.33  1.8148541E-01
   7115.67  1.4989584E-01
   7116.00  1.2751864E-01
   7116.33  1.1242037E-01
   7116.67  1.0186599E-01
   7117.00  9.4816804E-02
   7117.33  9.0599881E-02
   7117.67  8.8485571E-02
   7118.00  8.8669446E-02
   7118.33  9.1758436E-02
   7118.67  9.7629991E-02
   7119.00  1.0637886E-01
   7119.33  1.1824947E-01
   7119.67  1.3263200E-01
   7120.00  1.4941503E-01
   7120.33  1.6865786E-01
   7120.67  1.8853766E-01
   7121.00  2.0594597E-01
   7121.33  2.1602282E-01
   7121.67  2.1874950E-01
   7122.00  2.1720946E-01
   7122.33  2.1668425E-01
   7122.67  2.2045576E-01
   7123.00  2.2931998E-01
   7123.33  2.4325005E-01
   7123.67  2.6071414E-01
   7124.00  2.8127833E-01
   7124.33  3.0557242E-01
   7124.67  3.3385892E-01
   7125.00  3.6649040E-01
   7125.33  4.0312330E-01
   7125.67  4.4027881E-01
   7126.00  4.7343296E-01
   7126.33  4.9607609E-01
   7126.67  5.0762403E-01
   7127.00  5.1048300E-01
   7127.33  5.0906912E-01
   7127.67  5.0793268E-01
   7128.00  5.0911115E-01
   7128.33  5.1429885E-01
   7128.67  5.2376609E-01
   7129.00  5.3773224E-01
   7129.33  5.5546534E-01
   7129.67  5.7266128E-01
   7130.00  5.8468466E-01
   7130.33  5.8804891E-01
   7130.67  5.8605302E-01
   7131.00  5.8192764E-01
   7131.33  5.7804379E-01
   7131.67  5.7518200E-01
   7132.00  5.7345471E-01
   7132.33  5.7291112E-01
   7132.67  5.7324983E-01
   7133.00  5.7428429E-01
   7133.33  5.7582075E-01
   7133.67  5.7754443E-01
   7134.00  5.7926191E-01
   7134.33  5.8082593E-01
   7134.67  5.8226839E-01
   7135.00  5.8369665E-01
   7135.33  5.8525522E-01
   7135.67  5.8694478E-01
   7136.00  5.8864609E-01
   7136.33  5.9008325E-01
   7136.67  5.9101801E-01
   7137.00  5.9126239E-01
   7137.33  5.9056666E-01
   7137.67  5.8897953E-01
   7138.00  5.8654622E-01
   7138.33  5.8338927E-01
   7138.67  5.7996998E-01
   7139.00  5.7672223E-01
   7139.33  5.7429820E-01
   7139.67  5.7313122E-01
   7140.00  5.7355301E-01
   7140.33  5.7596921E-01
   7140.67  5.8010718E-01
   7141.00  5.8575203E-01
   7141.33  5.9263910E-01
   7141.67  6.0012358E-01
   7142.00  6.0773265E-01
   7142.33  6.1486835E-01
   7142.67  6.2110085E-01
   7143.00  6.2611430E-01
   7143.33  6.2952461E-01
   7143.67  6.3149547E-01
   7144.00  6.3214522E-01
   7144.33  6.3155357E-01
   7144.67  6.3006446E-01
   7145.00  6.2778213E-01
   7145.33  6.2462564E-01
   7145.67  6.2064520E-01
   7146.00  6.1582409E-01
   7146.33  6.1015526E-01
   7146.67  6.0395503E-01
   7147.00  5.9748580E-01
   7147.33  5.9106400E-01
   7147.67  5.8493727E-01
   7148.00  5.7925358E-01
   7148.33  5.7416993E-01
   7148.67  5.6963481E-01
   7149.00  5.6561625E-01
   7149.33  5.6209794E-01
   7149.67  5.5893136E-01
   7150.00  5.5603060E-01
   7150.33  5.5331841E-01
   7150.67  5.5068455E-01
   7151.00  5.4806311E-01
   7151.33  5.4538489E-01
   7151.67  5.4260881E-01
   7152.00  5.3970581E-01
   7152.33  5.3663462E-01
   7152.67  5.3340181E-01
   7153.00  5.3000414E-01
   7153.33  5.2642415E-01
   7153.67  5.2269070E-01
   7154.00  5.1881459E-01
   7154.33  5.1479356E-01
   7154.67  5.1065657E-01
   7155.00  5.0641241E-01
   7155.33  5.0205372E-01
   7155.67  4.9759149E-01
   7156.00  4.9301832E-01
   7156.33  4.8830741E-01
   7156.67  4.8346291E-01
   7157.00  4.7847371E-01
   7157.33  4.7330233E-01
   7157.67  4.6794982E-01
   7158.00  4.6240643E-01
   7158.33  4.5664591E-01
   7158.67  4.5069394E-01
   7159.00  4.4455671E-01
   7159.33  4.3822638E-01
   7159.67  4.3174597E-01
   7160.00  4.2514313E-01
   7160.33  4.1844703E-01
   7160.67  4.1171350E-01
   7161.00  4.0498546E-01
   7161.33  3.9832278E-01
   7161.67  3.9177258E-01
   7162.00  3.8538170E-01
   7162.33  3.7922887E-01
   7162.67  3.7333454E-01
   7163.00  3.6773321E-01
   7163.33  3.6249739E-01
   7163.67  3.5760883E-01
   7164.00  3.5307955E-01
   7164.33  3.4896036E-01
   7164.67  3.4520236E-01
   7165.00  3.4179784E-01
   7165.33  3.3877657E-01
   7165.67  3.3608097E-01
   7166.00  3.3369796E-01
   7166.33  3.3164844E-01
   7166.67  3.2987889E-01
   7167.00  3.2837790E-01
   7167.33  3.2716960E-01
   7167.67  3.2621814E-01
   7168.00  3.2552401E-01
   7168.33  3.2512270E-01
   7168.67  3.2498553E-01
   7169.00  3.2511555E-01
   7169.33  3.2554808E-01
   7169.67  3.2624744E-01
   7170.00  3.2720719E-01
   7170.33  3.2844214E-01
   7170.67  3.2989275E-01
   7171.00  3.3151765E-01
   7171.33  3.3324514E-01
   7171.67  3.3491312E-01
   7172.00  3.3632352E-01
