    FDMNES
    energy     <xanes>
   7097.00  4.2272743E-03
   7097.33  4.3216241E-03
   7097.67  4.4202624E-03
   7098.00  4.5234987E-03
   7098.33  4.6323601E-03
   7098.67  4.7466742E-03
   7099.00  4.8668758E-03
   7099.33  4.9943424E-03
   7099.67  5.1289165E-03
   7100.00  5.2712286E-03
   7100.33  5.4231879E-03
   7100.67  5.5846889E-03
   7101.00  5.7566819E-03
   7101.33  5.9419178E-03
   7101.67  6.1404254E-03
   7102.00  6.3537028E-03
   7102.33  6.5859042E-03
   7102.67  6.8373778E-03
   7103.00  7.1106177E-03
   7103.33  7.4122662E-03
   7103.67  7.7434294E-03
   7104.00  8.1085468E-03
   7104.33  8.5190234E-03
   7104.67  8.9778359E-03
   7105.00  9.4935837E-03
   7105.33  1.0087718E-02
   7105.67  1.0768209E-02
   7106.00  1.1553656E-02
   7106.33  1.2489593E-02
   7106.67  1.3599044E-02
   7107.00  1.4928788E-02
   7107.33  1.6593168E-02
   7107.67  1.8669843E-02
   7108.00  2.1305097E-02
   7108.33  2.4867356E-02
   7108.67  2.9697854E-02
   7109.00  3.6436993E-02
   7109.33  4.6844710E-02
   7109.67  6.3224135E-02
   7110.00  9.0177194E-02
   7110.33  1.4081114E-01
   7110.67  2.2274850E-01
   7111.00  3.0539521E-01
   7111.33  3.0397196E-01
   7111.67  2.7036462E-01
   7112.00  2.4282097E-01
   7112.33  2.0788552E-01
   7112.67  1.6664270E-01
   7113.00  1.2900836E-01
   7113.33  1.0156100E-01
   7113.67  8.2820825E-02
   7114.00  7.0831438E-02
   7114.33  6.4736368E-02
   7114.67  6.2177986E-02
   7115.00  5.9779213E-02
   7115.33  5.5255133E-02
   7115.67  5.1414135E-02
   7116.00  4.8270597E-02
   7116.33  4.4588712E-02
   7116.67  4.1204696E-02
   7117.00  3.8945793E-02
   7117.33  3.8122534E-02
   7117.67  3.8367880E-02
   7118.00  3.9494319E-02
   7118.33  4.1438929E-02
   7118.67  4.4055005E-02
   7119.00  4.7407202E-02
   7119.33  5.1844800E-02
   7119.67  5.7597252E-02
   7120.00  6.5004996E-02
   7120.33  7.4772083E-02
   7120.67  8.7015957E-02
   7121.00  1.0096514E-01
   7121.33  1.1152252E-01
   7121.67  1.1386084E-01
   7122.00  1.1016205E-01
   7122.33  1.0737999E-01
   7122.67  1.0962029E-01
   7123.00  1.1821397E-01
   7123.33  1.3454805E-01
   7123.67  1.5773012E-01
   7124.00  1.8626317E-01
   7124.33  2.1410107E-01
   7124.67  2.3266950E-01
   7125.00  2.4024255E-01
   7125.33  2.4370575E-01
   7125.67  2.5067793E-01
   7126.00  2.6297253E-01
   7126.33  2.7983603E-01
   7126.67  2.9772839E-01
   7127.00  3.1403515E-01
   7127.33  3.2792146E-01
   7127.67  3.4136016E-01
   7128.00  3.5435277E-01
   7128.33  3.6586933E-01
   7128.67  3.7850477E-01
   7129.00  3.9613090E-01
   7129.33  4.2274151E-01
   7129.67  4.5838509E-01
   7130.00  5.0352273E-01
   7130.33  5.6058420E-01
   7130.67  6.3009137E-01
   7131.00  7.1242071E-01
   7131.33  7.9821203E-01
   7131.67  8.5671589E-01
   7132.00  8.6467842E-01
   7132.33  8.3508350E-01
   7132.67  8.0746418E-01
   7133.00  7.9581671E-01
   7133.33  8.0431388E-01
   7133.67  8.2888342E-01
   7134.00  8.6904608E-01
   7134.33  9.2843478E-01
   7134.67  1.0059793E+00
   7135.00  1.0962076E+00
   7135.33  1.1720444E+00
   7135.67  1.1938851E+00
   7136.00  1.1463882E+00
   7136.33  1.0528108E+00
   7136.67  9.5741684E-01
   7137.00  8.7671287E-01
   7137.33  8.1614129E-01
   7137.67  7.7039989E-01
   7138.00  7.3630479E-01
   7138.33  7.1201750E-01
   7138.67  6.9444329E-01
   7139.00  6.8242932E-01
   7139.33  6.7564719E-01
   7139.67  6.7289747E-01
   7140.00  6.7378394E-01
   7140.33  6.7832361E-01
   7140.67  6.8573996E-01
   7141.00  6.9569418E-01
   7141.33  7.0798246E-01
   7141.67  7.2176081E-01
   7142.00  7.3640165E-01
   7142.33  7.5099453E-01
   7142.67  7.6444584E-01
   7143.00  7.7571581E-01
   7143.33  7.8323347E-01
   7143.67  7.8652186E-01
   7144.00  7.8515217E-01
   7144.33  7.7854052E-01
   7144.67  7.6779605E-01
   7145.00  7.5369228E-01
   7145.33  7.3703100E-01
   7145.67  7.1918601E-01
   7146.00  7.0097808E-01
   7146.33  6.8320346E-01
   7146.67  6.6631956E-01
   7147.00  6.5058095E-01
   7147.33  6.3626957E-01
   7147.67  6.2321137E-01
   7148.00  6.1131942E-01
   7148.33  6.0055426E-01
   7148.67  5.9059320E-01
   7149.00  5.8125843E-01
   7149.33  5.7238979E-01
   7149.67  5.6372848E-01
   7150.00  5.5510366E-01
   7150.33  5.4630234E-01
   7150.67  5.3715812E-01
   7151.00  5.2752249E-01
   7151.33  5.1716961E-01
   7151.67  5.0608119E-01
   7152.00  4.9420311E-01
   7152.33  4.8140186E-01
   7152.67  4.6780323E-01
   7153.00  4.5347355E-01
   7153.33  4.3847307E-01
   7153.67  4.2308595E-01
   7154.00  4.0751830E-01
   7154.33  3.9201044E-01
   7154.67  3.7679031E-01
   7155.00  3.6205482E-01
   7155.33  3.4810043E-01
   7155.67  3.3502006E-01
   7156.00  3.2294058E-01
   7156.33  3.1211396E-01
   7156.67  3.0247870E-01
   7157.00  2.9407850E-01
   7157.33  2.8710079E-01
   7157.67  2.8139902E-01
   7158.00  2.7697210E-01
   7158.33  2.7396518E-01
   7158.67  2.7219518E-01
   7159.00  2.7162843E-01
   7159.33  2.7235203E-01
   7159.67  2.7414617E-01
   7160.00  2.7692838E-01
   7160.33  2.8068790E-01
   7160.67  2.8516560E-01
   7161.00  2.9020627E-01
   7161.33  2.9565470E-01
   7161.67  3.0126060E-01
   7162.00  3.0684864E-01
   7162.33  3.1219627E-01
   7162.67  3.1715657E-01
   7163.00  3.2160820E-01
   7163.33  3.2537495E-01
   7163.67  3.2848083E-01
   7164.00  3.3091859E-01
   7164.33  3.3263893E-01
   7164.67  3.3378585E-01
   7165.00  3.3443441E-01
   7165.33  3.3463816E-01
   7165.67  3.3455783E-01
   7166.00  3.3428805E-01
   7166.33  3.3392267E-01
   7166.67  3.3356928E-01
   7167.00  3.3330414E-01
   7167.33  3.3322765E-01
   7167.67  3.3338737E-01
   7168.00  3.3383305E-01
   7168.33  3.3465261E-01
   7168.67  3.3583740E-01
   7169.00  3.3740360E-01
   7169.33  3.3940217E-01
   7169.67  3.4176964E-01
   7170.00  3.4447709E-01
   7170.33  3.4750596E-01
   7170.67  3.5074179E-01
   7171.00  3.5409419E-01
   7171.33  3.5741267E-01
   7171.67  3.6047488E-01
   7172.00  3.6300959E-01
