    FDMNES
    energy     <xanes>
   7097.00  5.2970553E-03
   7097.33  5.4284053E-03
   7097.67  5.5659431E-03
   7098.00  5.7100952E-03
   7098.33  5.8623059E-03
   7098.67  6.0222913E-03
   7099.00  6.1906321E-03
   7099.33  6.3692202E-03
   7099.67  6.5577633E-03
   7100.00  6.7570720E-03
   7100.33  6.9696855E-03
   7100.67  7.1953293E-03
   7101.00  7.4351678E-03
   7101.33  7.6927078E-03
   7101.67  7.9677504E-03
   7102.00  8.2620259E-03
   7102.33  8.5805444E-03
   7102.67  8.9233098E-03
   7103.00  9.2929986E-03
   7103.33  9.6970688E-03
   7103.67  1.0136010E-02
   7104.00  1.0614171E-02
   7104.33  1.1143230E-02
   7104.67  1.1724822E-02
   7105.00  1.2366461E-02
   7105.33  1.3087646E-02
   7105.67  1.3892802E-02
   7106.00  1.4795996E-02
   7106.33  1.5832649E-02
   7106.67  1.7014546E-02
   7107.00  1.8371025E-02
   7107.33  1.9974464E-02
   7107.67  2.1858775E-02
   7108.00  2.4095624E-02
   7108.33  2.6861545E-02
   7108.67  3.0273314E-02
   7109.00  3.4556699E-02
   7109.33  4.0291886E-02
   7109.67  4.8047257E-02
   7110.00  5.8926461E-02
   7110.33  7.6009887E-02
   7110.67  1.0244190E-01
   7111.00  1.3994292E-01
   7111.33  1.8540043E-01
   7111.67  2.3317555E-01
   7112.00  2.8671745E-01
   7112.33  3.6166928E-01
   7112.67  4.5757730E-01
   7113.00  5.7153542E-01
   7113.33  6.7989995E-01
   7113.67  7.0572527E-01
   7114.00  6.2128993E-01
   7114.33  4.9573966E-01
   7114.67  3.9279350E-01
   7115.00  3.1983631E-01
   7115.33  2.7262252E-01
   7115.67  2.4093749E-01
   7116.00  2.2073146E-01
   7116.33  2.1025437E-01
   7116.67  2.0571831E-01
   7117.00  2.0326724E-01
   7117.33  1.9702670E-01
   7117.67  1.8569078E-01
   7118.00  1.7164381E-01
   7118.33  1.5844195E-01
   7118.67  1.4781309E-01
   7119.00  1.3992915E-01
   7119.33  1.3439623E-01
   7119.67  1.3006613E-01
   7120.00  1.2626805E-01
   7120.33  1.2256386E-01
   7120.67  1.1927232E-01
   7121.00  1.1718221E-01
   7121.33  1.1706024E-01
   7121.67  1.1848848E-01
   7122.00  1.2100630E-01
   7122.33  1.2423983E-01
   7122.67  1.2791238E-01
   7123.00  1.3201322E-01
   7123.33  1.3668322E-01
   7123.67  1.4198199E-01
   7124.00  1.4801995E-01
   7124.33  1.5500841E-01
   7124.67  1.6292858E-01
   7125.00  1.7188945E-01
   7125.33  1.8232697E-01
   7125.67  1.9455685E-01
   7126.00  2.0908144E-01
   7126.33  2.2672639E-01
   7126.67  2.4733304E-01
   7127.00  2.7082299E-01
   7127.33  2.9718274E-01
   7127.67  3.2549426E-01
   7128.00  3.5512481E-01
   7128.33  3.8562009E-01
   7128.67  4.1692654E-01
   7129.00  4.4979810E-01
   7129.33  4.8623493E-01
   7129.67  5.2740082E-01
   7130.00  5.7393283E-01
   7130.33  6.2644510E-01
   7130.67  6.8383198E-01
   7131.00  7.4547826E-01
   7131.33  8.1024695E-01
   7131.67  8.7499615E-01
   7132.00  9.3656847E-01
   7132.33  9.9078779E-01
   7132.67  1.0363455E+00
   7133.00  1.0720713E+00
   7133.33  1.0945346E+00
   7133.67  1.1020159E+00
   7134.00  1.0918982E+00
   7134.33  1.0614815E+00
   7134.67  1.0163070E+00
   7135.00  9.6102443E-01
   7135.33  9.0046321E-01
   7135.67  8.3939863E-01
   7136.00  7.8025549E-01
   7136.33  7.2520405E-01
   7136.67  6.7469603E-01
   7137.00  6.2914392E-01
   7137.33  5.8948561E-01
   7137.67  5.5525149E-01
   7138.00  5.2653912E-01
   7138.33  5.0404007E-01
   7138.67  4.8689871E-01
   7139.00  4.7482414E-01
   7139.33  4.6789107E-01
   7139.67  4.6491663E-01
   7140.00  4.6534602E-01
   7140.33  4.6891676E-01
   7140.67  4.7475053E-01
   7141.00  4.8247278E-01
   7141.33  4.9192429E-01
   7141.67  5.0262788E-01
   7142.00  5.1436677E-01
   7142.33  5.2699096E-01
   7142.67  5.4013669E-01
   7143.00  5.5355461E-01
   7143.33  5.6692733E-01
   7143.67  5.7993553E-01
   7144.00  5.9230432E-01
   7144.33  6.0361763E-01
   7144.67  6.1373123E-01
   7145.00  6.2245871E-01
   7145.33  6.2944164E-01
   7145.67  6.3477141E-01
   7146.00  6.3840886E-01
   7146.33  6.4015235E-01
   7146.67  6.4026979E-01
   7147.00  6.3883979E-01
   7147.33  6.3580975E-01
   7147.67  6.3151489E-01
   7148.00  6.2610935E-01
   7148.33  6.1967113E-01
   7148.67  6.1251311E-01
   7149.00  6.0480345E-01
   7149.33  5.9668849E-01
   7149.67  5.8840339E-01
   7150.00  5.8009803E-01
   7150.33  5.7193883E-01
   7150.67  5.6404542E-01
   7151.00  5.5652672E-01
   7151.33  5.4955654E-01
   7151.67  5.4317349E-01
   7152.00  5.3745523E-01
   7152.33  5.3257574E-01
   7152.67  5.2851082E-01
   7153.00  5.2530884E-01
   7153.33  5.2312260E-01
   7153.67  5.2185823E-01
   7154.00  5.2151345E-01
   7154.33  5.2217253E-01
   7154.67  5.2366784E-01
   7155.00  5.2592992E-01
   7155.33  5.2894095E-01
   7155.67  5.3250066E-01
   7156.00  5.3650078E-01
   7156.33  5.4085103E-01
   7156.67  5.4538521E-01
   7157.00  5.4999836E-01
   7157.33  5.5457087E-01
   7157.67  5.5900052E-01
   7158.00  5.6320226E-01
   7158.33  5.6704410E-01
   7158.67  5.7048024E-01
   7159.00  5.7344206E-01
   7159.33  5.7578901E-01
   7159.67  5.7752722E-01
   7160.00  5.7861290E-01
   7160.33  5.7892226E-01
   7160.67  5.7851891E-01
   7161.00  5.7739141E-01
   7161.33  5.7544679E-01
   7161.67  5.7279582E-01
   7162.00  5.6946666E-01
   7162.33  5.6541284E-01
   7162.67  5.6076000E-01
   7163.00  5.5555698E-01
   7163.33  5.4980422E-01
   7163.67  5.4362731E-01
   7164.00  5.3708355E-01
   7164.33  5.3020288E-01
   7164.67  5.2308967E-01
   7165.00  5.1580018E-01
   7165.33  5.0838370E-01
   7165.67  5.0091526E-01
   7166.00  4.9344388E-01
   7166.33  4.8602805E-01
   7166.67  4.7870857E-01
   7167.00  4.7152037E-01
   7167.33  4.6451827E-01
   7167.67  4.5771127E-01
   7168.00  4.5112238E-01
   7168.33  4.4480794E-01
   7168.67  4.3876820E-01
   7169.00  4.3302716E-01
   7169.33  4.2764443E-01
   7169.67  4.2259711E-01
   7170.00  4.1790076E-01
   7170.33  4.1362111E-01
   7170.67  4.0973235E-01
   7171.00  4.0625359E-01
   7171.33  4.0326705E-01
   7171.67  4.0076058E-01
   7172.00  3.9878228E-01
