    FDMNES
    energy     <xanes>
   7097.00  4.9200662E-03
   7097.33  5.0316582E-03
   7097.67  5.1482642E-03
   7098.00  5.2702277E-03
   7098.33  5.3987169E-03
   7098.67  5.5335018E-03
   7099.00  5.6750536E-03
   7099.33  5.8249080E-03
   7099.67  5.9828339E-03
   7100.00  6.1494959E-03
   7100.33  6.3269687E-03
   7100.67  6.5150473E-03
   7101.00  6.7146998E-03
   7101.33  6.9288216E-03
   7101.67  7.1572932E-03
   7102.00  7.4015806E-03
   7102.33  7.6658853E-03
   7102.67  7.9503056E-03
   7103.00  8.2571661E-03
   7103.33  8.5928609E-03
   7103.67  8.9580090E-03
   7104.00  9.3565123E-03
   7104.33  9.7986973E-03
   7104.67  1.0286434E-02
   7105.00  1.0826761E-02
   7105.33  1.1437672E-02
   7105.67  1.2124210E-02
   7106.00  1.2900316E-02
   7106.33  1.3800680E-02
   7106.67  1.4839210E-02
   7107.00  1.6047307E-02
   7107.33  1.7501984E-02
   7107.67  1.9246127E-02
   7108.00  2.1364973E-02
   7108.33  2.4069905E-02
   7108.67  2.7525344E-02
   7109.00  3.2042008E-02
   7109.33  3.8440290E-02
   7109.67  4.7647720E-02
   7110.00  6.1484475E-02
   7110.33  8.5168580E-02
   7110.67  1.2394888E-01
   7111.00  1.7759527E-01
   7111.33  2.2723554E-01
   7111.67  2.6119118E-01
   7112.00  2.8092478E-01
   7112.33  3.0114499E-01
   7112.67  3.3898513E-01
   7113.00  3.9081928E-01
   7113.33  4.1017979E-01
   7113.67  3.6673565E-01
   7114.00  2.8957899E-01
   7114.33  2.2402712E-01
   7114.67  1.7847145E-01
   7115.00  1.4816750E-01
   7115.33  1.2774910E-01
   7115.67  1.1172112E-01
   7116.00  9.8872066E-02
   7116.33  9.0156781E-02
   7116.67  8.5276191E-02
   7117.00  8.3813645E-02
   7117.33  8.5547146E-02
   7117.67  8.9426871E-02
   7118.00  9.4499736E-02
   7118.33  9.9281985E-02
   7118.67  1.0242439E-01
   7119.00  1.0349673E-01
   7119.33  1.0349080E-01
   7119.67  1.0411618E-01
   7120.00  1.0606633E-01
   7120.33  1.0958195E-01
   7120.67  1.1421575E-01
   7121.00  1.1992793E-01
   7121.33  1.2750375E-01
   7121.67  1.3768575E-01
   7122.00  1.5110268E-01
   7122.33  1.6831903E-01
   7122.67  1.8841562E-01
   7123.00  2.1068242E-01
   7123.33  2.3432340E-01
   7123.67  2.5809571E-01
   7124.00  2.8110203E-01
   7124.33  3.0271608E-01
   7124.67  3.2334789E-01
   7125.00  3.4328660E-01
   7125.33  3.6221868E-01
   7125.67  3.7962490E-01
   7126.00  3.9515027E-01
   7126.33  4.0876582E-01
   7126.67  4.2145124E-01
   7127.00  4.3405754E-01
   7127.33  4.4742296E-01
   7127.67  4.6188435E-01
   7128.00  4.7777636E-01
   7128.33  4.9583695E-01
   7128.67  5.1611236E-01
   7129.00  5.3837255E-01
   7129.33  5.6190276E-01
   7129.67  5.8516358E-01
   7130.00  6.0660637E-01
   7130.33  6.2423770E-01
   7130.67  6.3833925E-01
   7131.00  6.5028265E-01
   7131.33  6.6259990E-01
   7131.67  6.7745022E-01
   7132.00  6.9587786E-01
   7132.33  7.1839912E-01
   7132.67  7.4348941E-01
   7133.00  7.6951606E-01
   7133.33  7.9389865E-01
   7133.67  8.1438338E-01
   7134.00  8.2930967E-01
   7134.33  8.3688140E-01
   7134.67  8.3810319E-01
   7135.00  8.3389505E-01
   7135.33  8.2529984E-01
   7135.67  8.1437517E-01
   7136.00  8.0223248E-01
   7136.33  7.8968639E-01
   7136.67  7.7715246E-01
   7137.00  7.6462521E-01
   7137.33  7.5185184E-01
   7137.67  7.3861260E-01
   7138.00  7.2484606E-01
   7138.33  7.1072595E-01
   7138.67  6.9677714E-01
   7139.00  6.8355706E-01
   7139.33  6.7191588E-01
   7139.67  6.6220764E-01
   7140.00  6.5466726E-01
   7140.33  6.4952179E-01
   7140.67  6.4613223E-01
   7141.00  6.4395293E-01
   7141.33  6.4223833E-01
   7141.67  6.4012682E-01
   7142.00  6.3705639E-01
   7142.33  6.3249123E-01
   7142.67  6.2657006E-01
   7143.00  6.1949245E-01
   7143.33  6.1153268E-01
   7143.67  6.0319096E-01
   7144.00  5.9477155E-01
   7144.33  5.8657490E-01
   7144.67  5.7876859E-01
   7145.00  5.7146076E-01
   7145.33  5.6477818E-01
   7145.67  5.5863460E-01
   7146.00  5.5298126E-01
   7146.33  5.4779040E-01
   7146.67  5.4291103E-01
   7147.00  5.3824690E-01
   7147.33  5.3369697E-01
   7147.67  5.2914766E-01
   7148.00  5.2453312E-01
   7148.33  5.1979468E-01
   7148.67  5.1493900E-01
   7149.00  5.0998921E-01
   7149.33  5.0499620E-01
   7149.67  5.0004381E-01
   7150.00  4.9521170E-01
   7150.33  4.9062613E-01
   7150.67  4.8635916E-01
   7151.00  4.8249305E-01
   7151.33  4.7917675E-01
   7151.67  4.7642434E-01
   7152.00  4.7428894E-01
   7152.33  4.7290082E-01
   7152.67  4.7220539E-01
   7153.00  4.7220867E-01
   7153.33  4.7297527E-01
   7153.67  4.7436643E-01
   7154.00  4.7630813E-01
   7154.33  4.7873727E-01
   7154.67  4.8145431E-01
   7155.00  4.8432029E-01
   7155.33  4.8716863E-01
   7155.67  4.8984884E-01
   7156.00  4.9224998E-01
   7156.33  4.9422623E-01
   7156.67  4.9576084E-01
   7157.00  4.9682428E-01
   7157.33  4.9734626E-01
   7157.67  4.9739683E-01
   7158.00  4.9699663E-01
   7158.33  4.9612933E-01
   7158.67  4.9489313E-01
   7159.00  4.9333534E-01
   7159.33  4.9148784E-01
   7159.67  4.8945459E-01
   7160.00  4.8729824E-01
   7160.33  4.8508467E-01
   7160.67  4.8289120E-01
   7161.00  4.8077653E-01
   7161.33  4.7882255E-01
   7161.67  4.7706878E-01
   7162.00  4.7555680E-01
   7162.33  4.7435122E-01
   7162.67  4.7343173E-01
   7163.00  4.7280862E-01
   7163.33  4.7252401E-01
   7163.67  4.7253204E-01
   7164.00  4.7281591E-01
   7164.33  4.7337654E-01
   7164.67  4.7414512E-01
   7165.00  4.7508538E-01
   7165.33  4.7616923E-01
   7165.67  4.7733683E-01
   7166.00  4.7855297E-01
   7166.33  4.7978303E-01
   7166.67  4.8099506E-01
   7167.00  4.8216771E-01
   7167.33  4.8327449E-01
   7167.67  4.8431134E-01
   7168.00  4.8527932E-01
   7168.33  4.8617725E-01
   7168.67  4.8701468E-01
   7169.00  4.8779350E-01
   7169.33  4.8851163E-01
   7169.67  4.8918147E-01
   7170.00  4.8980756E-01
   7170.33  4.9038969E-01
   7170.67  4.9093600E-01
   7171.00  4.9144723E-01
   7171.33  4.9191434E-01
   7171.67  4.9232796E-01
   7172.00  4.9266588E-01
