    FDMNES
    energy     <xanes>
   7097.00  5.2838771E-03
   7097.33  5.4127116E-03
   7097.67  5.5475214E-03
   7098.00  5.6887176E-03
   7098.33  5.8376946E-03
   7098.67  5.9941795E-03
   7099.00  6.1587356E-03
   7099.33  6.3331956E-03
   7099.67  6.5172846E-03
   7100.00  6.7117962E-03
   7100.33  6.9192059E-03
   7100.67  7.1392691E-03
   7101.00  7.3731410E-03
   7101.33  7.6242761E-03
   7101.67  7.8925319E-03
   7102.00  8.1796579E-03
   7102.33  8.4906683E-03
   7102.67  8.8256835E-03
   7103.00  9.1874816E-03
   7103.33  9.5837040E-03
   7103.67  1.0015104E-02
   7104.00  1.0486360E-02
   7104.33  1.1009851E-02
   7104.67  1.1587866E-02
   7105.00  1.2228895E-02
   7105.33  1.2954632E-02
   7105.67  1.3771306E-02
   7106.00  1.4695900E-02
   7106.33  1.5770647E-02
   7106.67  1.7012949E-02
   7107.00  1.8461632E-02
   7107.33  2.0211962E-02
   7107.67  2.2318571E-02
   7108.00  2.4889233E-02
   7108.33  2.8192011E-02
   7108.67  3.2442008E-02
   7109.00  3.8045349E-02
   7109.33  4.6082965E-02
   7109.67  5.7815285E-02
   7110.00  7.5723479E-02
   7110.33  1.0685849E-01
   7110.67  1.5713064E-01
   7111.00  2.2074327E-01
   7111.33  2.7224647E-01
   7111.67  3.2188179E-01
   7112.00  3.6418078E-01
   7112.33  3.8453451E-01
   7112.67  3.9265221E-01
   7113.00  3.7508061E-01
   7113.33  3.3272511E-01
   7113.67  2.9549328E-01
   7114.00  2.6535004E-01
   7114.33  2.2137497E-01
   7114.67  1.7532178E-01
   7115.00  1.4683632E-01
   7115.33  1.3415803E-01
   7115.67  1.1987709E-01
   7116.00  1.0598513E-01
   7116.33  1.0048058E-01
   7116.67  1.0307669E-01
   7117.00  1.1410130E-01
   7117.33  1.3740851E-01
   7117.67  1.7578986E-01
   7118.00  2.2878705E-01
   7118.33  2.7201855E-01
   7118.67  2.7444571E-01
   7119.00  2.5004877E-01
   7119.33  2.3164038E-01
   7119.67  2.2556353E-01
   7120.00  2.2888102E-01
   7120.33  2.3727518E-01
   7120.67  2.4624333E-01
   7121.00  2.5699309E-01
   7121.33  2.7419431E-01
   7121.67  3.0042650E-01
   7122.00  3.3718737E-01
   7122.33  3.8552467E-01
   7122.67  4.4200191E-01
   7123.00  5.0311435E-01
   7123.33  5.6083773E-01
   7123.67  6.0490027E-01
   7124.00  6.2901225E-01
   7124.33  6.3102598E-01
   7124.67  6.1948300E-01
   7125.00  6.0105558E-01
   7125.33  5.8211349E-01
   7125.67  5.6611926E-01
   7126.00  5.5397175E-01
   7126.33  5.4743596E-01
   7126.67  5.4815664E-01
   7127.00  5.5770425E-01
   7127.33  5.7701291E-01
   7127.67  6.0280701E-01
   7128.00  6.3267365E-01
   7128.33  6.6436159E-01
   7128.67  6.9458156E-01
   7129.00  7.1928747E-01
   7129.33  7.3177684E-01
   7129.67  7.3066715E-01
   7130.00  7.1780015E-01
   7130.33  6.9791222E-01
   7130.67  6.7716351E-01
   7131.00  6.5836337E-01
   7131.33  6.4314434E-01
   7131.67  6.3120765E-01
   7132.00  6.2260940E-01
   7132.33  6.1811306E-01
   7132.67  6.1722987E-01
   7133.00  6.1913503E-01
   7133.33  6.2201048E-01
   7133.67  6.2334948E-01
   7134.00  6.2132537E-01
   7134.33  6.1430930E-01
   7134.67  6.0323690E-01
   7135.00  5.8922529E-01
   7135.33  5.7363188E-01
   7135.67  5.5792716E-01
   7136.00  5.4291060E-01
   7136.33  5.2937851E-01
   7136.67  5.1757093E-01
   7137.00  5.0769200E-01
   7137.33  5.0005024E-01
   7137.67  4.9424962E-01
   7138.00  4.9001959E-01
   7138.33  4.8709978E-01
   7138.67  4.8494110E-01
   7139.00  4.8326291E-01
   7139.33  4.8187786E-01
   7139.67  4.8062915E-01
   7140.00  4.7944265E-01
   7140.33  4.7819948E-01
   7140.67  4.7672849E-01
   7141.00  4.7483520E-01
   7141.33  4.7219024E-01
   7141.67  4.6864537E-01
   7142.00  4.6405300E-01
   7142.33  4.5820739E-01
   7142.67  4.5132219E-01
   7143.00  4.4357523E-01
   7143.33  4.3521254E-01
   7143.67  4.2668588E-01
   7144.00  4.1833871E-01
   7144.33  4.1061492E-01
   7144.67  4.0375869E-01
   7145.00  3.9797218E-01
   7145.33  3.9355572E-01
   7145.67  3.9041381E-01
   7146.00  3.8853167E-01
   7146.33  3.8798330E-01
   7146.67  3.8850390E-01
   7147.00  3.8997032E-01
   7147.33  3.9231510E-01
   7147.67  3.9525642E-01
   7148.00  3.9862365E-01
   7148.33  4.0223640E-01
   7148.67  4.0586392E-01
   7149.00  4.0934937E-01
   7149.33  4.1250287E-01
   7149.67  4.1524415E-01
   7150.00  4.1751130E-01
   7150.33  4.1920483E-01
   7150.67  4.2037613E-01
   7151.00  4.2103182E-01
   7151.33  4.2114398E-01
   7151.67  4.2083234E-01
   7152.00  4.2016339E-01
   7152.33  4.1918662E-01
   7152.67  4.1801526E-01
   7153.00  4.1670774E-01
   7153.33  4.1531000E-01
   7153.67  4.1387686E-01
   7154.00  4.1243937E-01
   7154.33  4.1103034E-01
   7154.67  4.0967015E-01
   7155.00  4.0837366E-01
   7155.33  4.0716298E-01
   7155.67  4.0603902E-01
   7156.00  4.0500979E-01
   7156.33  4.0409558E-01
   7156.67  4.0328944E-01
   7157.00  4.0259543E-01
   7157.33  4.0203195E-01
   7157.67  4.0158763E-01
   7158.00  4.0126451E-01
   7158.33  4.0108019E-01
   7158.67  4.0102151E-01
   7159.00  4.0109151E-01
   7159.33  4.0131255E-01
   7159.67  4.0167545E-01
   7160.00  4.0218907E-01
   7160.33  4.0288726E-01
   7160.67  4.0376464E-01
   7161.00  4.0483402E-01
   7161.33  4.0613504E-01
   7161.67  4.0765421E-01
   7162.00  4.0939803E-01
   7162.33  4.1138545E-01
   7162.67  4.1356683E-01
   7163.00  4.1592099E-01
   7163.33  4.1843598E-01
   7163.67  4.2105630E-01
   7164.00  4.2374527E-01
   7164.33  4.2646199E-01
   7164.67  4.2916185E-01
   7165.00  4.3181368E-01
   7165.33  4.3437955E-01
   7165.67  4.3685101E-01
   7166.00  4.3922111E-01
   7166.33  4.4147847E-01
   7166.67  4.4364440E-01
   7167.00  4.4573010E-01
   7167.33  4.4774371E-01
   7167.67  4.4971133E-01
   7168.00  4.5164891E-01
   7168.33  4.5357290E-01
   7168.67  4.5549999E-01
   7169.00  4.5743971E-01
   7169.33  4.5940201E-01
   7169.67  4.6138802E-01
   7170.00  4.6339754E-01
   7170.33  4.6542811E-01
   7170.67  4.6746491E-01
   7171.00  4.6948650E-01
   7171.33  4.7143561E-01
   7171.67  4.7322179E-01
   7172.00  4.7470992E-01
