    FDMNES
    energy     <xanes>
   7097.00  5.2306784E-03
   7097.33  5.3570911E-03
   7097.67  5.4893864E-03
   7098.00  5.6279704E-03
   7098.33  5.7742172E-03
   7098.67  5.9278588E-03
   7099.00  6.0894497E-03
   7099.33  6.2607942E-03
   7099.67  6.4416195E-03
   7100.00  6.6327038E-03
   7100.33  6.8364775E-03
   7100.67  7.0526915E-03
   7101.00  7.2824715E-03
   7101.33  7.5291926E-03
   7101.67  7.7926922E-03
   7102.00  8.0746587E-03
   7102.33  8.3799535E-03
   7102.67  8.7086391E-03
   7103.00  9.0633610E-03
   7103.33  9.4514401E-03
   7103.67  9.8734779E-03
   7104.00  1.0333849E-02
   7104.33  1.0844206E-02
   7104.67  1.1406440E-02
   7105.00  1.2028291E-02
   7105.33  1.2729677E-02
   7105.67  1.3515712E-02
   7106.00  1.4401361E-02
   7106.33  1.5424060E-02
   7106.67  1.6597743E-02
   7107.00  1.7955094E-02
   7107.33  1.9576478E-02
   7107.67  2.1503839E-02
   7108.00  2.3822430E-02
   7108.33  2.6743123E-02
   7108.67  3.0420808E-02
   7109.00  3.5150207E-02
   7109.33  4.1701445E-02
   7109.67  5.0903101E-02
   7110.00  6.4374070E-02
   7110.33  8.6742807E-02
   7110.67  1.2304295E-01
   7111.00  1.7546500E-01
   7111.33  2.3146242E-01
   7111.67  2.7770391E-01
   7112.00  3.1581473E-01
   7112.33  3.4621285E-01
   7112.67  3.7805938E-01
   7113.00  4.2278824E-01
   7113.33  4.7485549E-01
   7113.67  4.9924051E-01
   7114.00  4.7195838E-01
   7114.33  4.0577906E-01
   7114.67  3.3916406E-01
   7115.00  2.8656931E-01
   7115.33  2.5180397E-01
   7115.67  2.2936159E-01
   7116.00  2.1552601E-01
   7116.33  2.0611526E-01
   7116.67  1.9584299E-01
   7117.00  1.8242684E-01
   7117.33  1.6773061E-01
   7117.67  1.5544745E-01
   7118.00  1.4652368E-01
   7118.33  1.4049712E-01
   7118.67  1.3612871E-01
   7119.00  1.3309361E-01
   7119.33  1.3141476E-01
   7119.67  1.3085914E-01
   7120.00  1.3129544E-01
   7120.33  1.3242453E-01
   7120.67  1.3400977E-01
   7121.00  1.3642620E-01
   7121.33  1.3994264E-01
   7121.67  1.4409468E-01
   7122.00  1.4905172E-01
   7122.33  1.5534514E-01
   7122.67  1.6279605E-01
   7123.00  1.7131385E-01
   7123.33  1.8144278E-01
   7123.67  1.9390855E-01
   7124.00  2.0953518E-01
   7124.33  2.2911132E-01
   7124.67  2.5115394E-01
   7125.00  2.7332794E-01
   7125.33  2.9194479E-01
   7125.67  3.0629755E-01
   7126.00  3.1812744E-01
   7126.33  3.3063028E-01
   7126.67  3.4614586E-01
   7127.00  3.6600094E-01
   7127.33  3.9190997E-01
   7127.67  4.2350929E-01
   7128.00  4.5988918E-01
   7128.33  4.9819755E-01
   7128.67  5.3370910E-01
   7129.00  5.6356316E-01
   7129.33  5.8754655E-01
   7129.67  6.0970702E-01
   7130.00  6.3272788E-01
   7130.33  6.5773867E-01
   7130.67  6.8339664E-01
   7131.00  7.0829879E-01
   7131.33  7.3114574E-01
   7131.67  7.5205742E-01
   7132.00  7.7184596E-01
   7132.33  7.9253709E-01
   7132.67  8.1593920E-01
   7133.00  8.4237268E-01
   7133.33  8.7026145E-01
   7133.67  8.9647549E-01
   7134.00  9.1852652E-01
   7134.33  9.3307208E-01
   7134.67  9.3860976E-01
   7135.00  9.3330509E-01
   7135.33  9.1460076E-01
   7135.67  8.8529769E-01
   7136.00  8.4832707E-01
   7136.33  8.0712936E-01
   7136.67  7.6526036E-01
   7137.00  7.2447367E-01
   7137.33  6.8641333E-01
   7137.67  6.5171675E-01
   7138.00  6.2098015E-01
   7138.33  5.9516100E-01
   7138.67  5.7377273E-01
   7139.00  5.5661084E-01
   7139.33  5.4370845E-01
   7139.67  5.3404959E-01
   7140.00  5.2716366E-01
   7140.33  5.2285780E-01
   7140.67  5.2047514E-01
   7141.00  5.1977698E-01
   7141.33  5.2071589E-01
   7141.67  5.2287250E-01
   7142.00  5.2599162E-01
   7142.33  5.2976469E-01
   7142.67  5.3368045E-01
   7143.00  5.3738511E-01
   7143.33  5.4053091E-01
   7143.67  5.4308831E-01
   7144.00  5.4511559E-01
   7144.33  5.4670131E-01
   7144.67  5.4800267E-01
   7145.00  5.4903645E-01
   7145.33  5.4968438E-01
   7145.67  5.4985034E-01
   7146.00  5.4941081E-01
   7146.33  5.4818367E-01
   7146.67  5.4624609E-01
   7147.00  5.4365563E-01
   7147.33  5.4047746E-01
   7147.67  5.3695424E-01
   7148.00  5.3325296E-01
   7148.33  5.2956238E-01
   7148.67  5.2603839E-01
   7149.00  5.2278138E-01
   7149.33  5.1991387E-01
   7149.67  5.1743458E-01
   7150.00  5.1535227E-01
   7150.33  5.1370500E-01
   7150.67  5.1242283E-01
   7151.00  5.1148475E-01
   7151.33  5.1090978E-01
   7151.67  5.1064470E-01
   7152.00  5.1068753E-01
   7152.33  5.1108671E-01
   7152.67  5.1182226E-01
   7153.00  5.1291671E-01
   7153.33  5.1444654E-01
   7153.67  5.1638723E-01
   7154.00  5.1875064E-01
   7154.33  5.2158792E-01
   7154.67  5.2482168E-01
   7155.00  5.2840808E-01
   7155.33  5.3230476E-01
   7155.67  5.3637530E-01
   7156.00  5.4051526E-01
   7156.33  5.4458083E-01
   7156.67  5.4843717E-01
   7157.00  5.5196152E-01
   7157.33  5.5495956E-01
   7157.67  5.5736826E-01
   7158.00  5.5909942E-01
   7158.33  5.5997925E-01
   7158.67  5.6005250E-01
   7159.00  5.5930220E-01
   7159.33  5.5763814E-01
   7159.67  5.5520500E-01
   7160.00  5.5206161E-01
   7160.33  5.4821720E-01
   7160.67  5.4384937E-01
   7161.00  5.3904802E-01
   7161.33  5.3387598E-01
   7161.67  5.2847581E-01
   7162.00  5.2293237E-01
   7162.33  5.1732887E-01
   7162.67  5.1174372E-01
   7163.00  5.0622790E-01
   7163.33  5.0086221E-01
   7163.67  4.9569468E-01
   7164.00  4.9077481E-01
   7164.33  4.8618792E-01
   7164.67  4.8193544E-01
   7165.00  4.7804239E-01
   7165.33  4.7457471E-01
   7165.67  4.7149271E-01
   7166.00  4.6879364E-01
   7166.33  4.6650816E-01
   7166.67  4.6456271E-01
   7167.00  4.6292483E-01
   7167.33  4.6157945E-01
   7167.67  4.6043785E-01
   7168.00  4.5944759E-01
   7168.33  4.5855675E-01
   7168.67  4.5769253E-01
   7169.00  4.5680563E-01
   7169.33  4.5583910E-01
   7169.67  4.5476470E-01
   7170.00  4.5356124E-01
   7170.33  4.5220652E-01
   7170.67  4.5073430E-01
   7171.00  4.4917948E-01
   7171.33  4.4761124E-01
   7171.67  4.4614564E-01
   7172.00  4.4491612E-01
