    FDMNES
    energy     <xanes>
   7097.00  4.3406006E-03
   7097.33  4.4316383E-03
   7097.67  4.5263561E-03
   7098.00  4.6249860E-03
   7098.33  4.7283519E-03
   7098.67  4.8362587E-03
   7099.00  4.9490203E-03
   7099.33  5.0677011E-03
   7099.67  5.1921002E-03
   7100.00  5.3226549E-03
   7100.33  5.4607789E-03
   7100.67  5.6062819E-03
   7101.00  5.7597944E-03
   7101.33  5.9232581E-03
   7101.67  6.0965308E-03
   7102.00  6.2805593E-03
   7102.33  6.4781219E-03
   7102.67  6.6892091E-03
   7103.00  6.9153143E-03
   7103.33  7.1606187E-03
   7103.67  7.4254411E-03
   7104.00  7.7122844E-03
   7104.33  8.0278519E-03
   7104.67  8.3732698E-03
   7105.00  8.7530634E-03
   7105.33  9.1788857E-03
   7105.67  9.6539424E-03
   7106.00  1.0187258E-02
   7106.33  1.0801371E-02
   7106.67  1.1505370E-02
   7107.00  1.2319794E-02
   7107.33  1.3295108E-02
   7107.67  1.4459786E-02
   7108.00  1.5870246E-02
   7108.33  1.7666452E-02
   7108.67  1.9958275E-02
   7109.00  2.2952584E-02
   7109.33  2.7194417E-02
   7109.67  3.3297945E-02
   7110.00  4.2463899E-02
   7110.33  5.8150131E-02
   7110.67  8.4145516E-02
   7111.00  1.2165016E-01
   7111.33  1.5982726E-01
   7111.67  1.9418532E-01
   7112.00  2.2396891E-01
   7112.33  2.3112129E-01
   7112.67  2.1151500E-01
   7113.00  1.7243402E-01
   7113.33  1.3654598E-01
   7113.67  1.1169875E-01
   7114.00  9.3122074E-02
   7114.33  7.7833319E-02
   7114.67  6.7416479E-02
   7115.00  6.1726203E-02
   7115.33  5.9650542E-02
   7115.67  5.9633539E-02
   7116.00  6.1065352E-02
   7116.33  6.3706770E-02
   7116.67  6.7316581E-02
   7117.00  7.1963166E-02
   7117.33  7.8012619E-02
   7117.67  8.5504863E-02
   7118.00  9.4463907E-02
   7118.33  1.0486131E-01
   7118.67  1.1614878E-01
   7119.00  1.2792310E-01
   7119.33  1.3985495E-01
   7119.67  1.5178819E-01
   7120.00  1.6366390E-01
   7120.33  1.7541114E-01
   7120.67  1.8707735E-01
   7121.00  1.9880337E-01
   7121.33  2.1090438E-01
   7121.67  2.2364795E-01
   7122.00  2.3724796E-01
   7122.33  2.5199819E-01
   7122.67  2.6794677E-01
   7123.00  2.8535147E-01
   7123.33  3.0488264E-01
   7123.67  3.2686539E-01
   7124.00  3.5185366E-01
   7124.33  3.8066870E-01
   7124.67  4.1245635E-01
   7125.00  4.4622240E-01
   7125.33  4.8081800E-01
   7125.67  5.1407244E-01
   7126.00  5.4277948E-01
   7126.33  5.6181385E-01
   7126.67  5.7040929E-01
   7127.00  5.6964919E-01
   7127.33  5.6214197E-01
   7127.67  5.5249876E-01
   7128.00  5.4325874E-01
   7128.33  5.3583594E-01
   7128.67  5.2932828E-01
   7129.00  5.2240127E-01
   7129.33  5.1432919E-01
   7129.67  5.0683960E-01
   7130.00  5.0249609E-01
   7130.33  5.0482906E-01
   7130.67  5.1478985E-01
   7131.00  5.3286528E-01
   7131.33  5.5950588E-01
   7131.67  5.9190340E-01
   7132.00  6.2721977E-01
   7132.33  6.6115839E-01
   7132.67  6.9036336E-01
   7133.00  7.1305294E-01
   7133.33  7.2727536E-01
   7133.67  7.3458813E-01
   7134.00  7.3762186E-01
   7134.33  7.4013980E-01
   7134.67  7.4402123E-01
   7135.00  7.4889191E-01
   7135.33  7.5329696E-01
   7135.67  7.5600798E-01
   7136.00  7.5645261E-01
   7136.33  7.5431271E-01
   7136.67  7.5031547E-01
   7137.00  7.4501560E-01
   7137.33  7.3900138E-01
   7137.67  7.3291670E-01
   7138.00  7.2711025E-01
   7138.33  7.2190046E-01
   7138.67  7.1732376E-01
   7139.00  7.1335673E-01
   7139.33  7.0991885E-01
   7139.67  7.0672737E-01
   7140.00  7.0356144E-01
   7140.33  7.0015604E-01
   7140.67  6.9636966E-01
   7141.00  6.9214074E-01
   7141.33  6.8744914E-01
   7141.67  6.8247063E-01
   7142.00  6.7735849E-01
   7142.33  6.7231209E-01
   7142.67  6.6749263E-01
   7143.00  6.6300382E-01
   7143.33  6.5895375E-01
   7143.67  6.5528525E-01
   7144.00  6.5194170E-01
   7144.33  6.4883458E-01
   7144.67  6.4578880E-01
   7145.00  6.4267114E-01
   7145.33  6.3929932E-01
   7145.67  6.3555454E-01
   7146.00  6.3133355E-01
   7146.33  6.2648804E-01
   7146.67  6.2106128E-01
   7147.00  6.1507459E-01
   7147.33  6.0853523E-01
   7147.67  6.0160640E-01
   7148.00  5.9438978E-01
   7148.33  5.8698675E-01
   7148.67  5.7953452E-01
   7149.00  5.7212315E-01
   7149.33  5.6485748E-01
   7149.67  5.5779134E-01
   7150.00  5.5096974E-01
   7150.33  5.4446014E-01
   7150.67  5.3823584E-01
   7151.00  5.3228429E-01
   7151.33  5.2661106E-01
   7151.67  5.2115657E-01
   7152.00  5.1589480E-01
   7152.33  5.1081221E-01
   7152.67  5.0585799E-01
   7153.00  5.0100744E-01
   7153.33  4.9624014E-01
   7153.67  4.9151677E-01
   7154.00  4.8680941E-01
   7154.33  4.8208179E-01
   7154.67  4.7729817E-01
   7155.00  4.7242031E-01
   7155.33  4.6737906E-01
   7155.67  4.6213806E-01
   7156.00  4.5665182E-01
   7156.33  4.5083705E-01
   7156.67  4.4469570E-01
   7157.00  4.3821149E-01
   7157.33  4.3134096E-01
   7157.67  4.2414853E-01
   7158.00  4.1667071E-01
   7158.33  4.0894071E-01
   7158.67  4.0106460E-01
   7159.00  3.9311966E-01
   7159.33  3.8520742E-01
   7159.67  3.7742689E-01
   7160.00  3.6986766E-01
   7160.33  3.6267304E-01
   7160.67  3.5589986E-01
   7161.00  3.4962469E-01
   7161.33  3.4399861E-01
   7161.67  3.3901563E-01
   7162.00  3.3471961E-01
   7162.33  3.3122378E-01
   7162.67  3.2843092E-01
   7163.00  3.2631880E-01
   7163.33  3.2493047E-01
   7163.67  3.2414021E-01
   7164.00  3.2390105E-01
   7164.33  3.2421032E-01
   7164.67  3.2493819E-01
   7165.00  3.2602457E-01
   7165.33  3.2743838E-01
   7165.67  3.2908324E-01
   7166.00  3.3091771E-01
   7166.33  3.3292789E-01
   7166.67  3.3507738E-01
   7167.00  3.3736375E-01
   7167.33  3.3981394E-01
   7167.67  3.4242653E-01
   7168.00  3.4521830E-01
   7168.33  3.4823127E-01
   7168.67  3.5145120E-01
   7169.00  3.5487880E-01
   7169.33  3.5852807E-01
   7169.67  3.6234947E-01
   7170.00  3.6630925E-01
   7170.33  3.7036353E-01
   7170.67  3.7442911E-01
   7171.00  3.7842467E-01
   7171.33  3.8219489E-01
   7171.67  3.8556622E-01
   7172.00  3.8830427E-01
