    FDMNES
    energy     <xanes>
   7097.00  4.9178253E-03
   7097.33  5.0286202E-03
   7097.67  5.1441201E-03
   7098.00  5.2646255E-03
   7098.33  5.3911964E-03
   7098.67  5.5235871E-03
   7099.00  5.6622033E-03
   7099.33  5.8084140E-03
   7099.67  5.9619638E-03
   7100.00  6.1234155E-03
   7100.33  6.2945844E-03
   7100.67  6.4752246E-03
   7101.00  6.6661427E-03
   7101.33  6.8698234E-03
   7101.67  7.0860748E-03
   7102.00  7.3160986E-03
   7102.33  7.5634312E-03
   7102.67  7.8280345E-03
   7103.00  8.1117872E-03
   7103.33  8.4199711E-03
   7103.67  8.7529349E-03
   7104.00  9.1137945E-03
   7104.33  9.5109372E-03
   7104.67  9.9456672E-03
   7105.00  1.0423556E-02
   7105.33  1.0959024E-02
   7105.67  1.1555841E-02
   7106.00  1.2225002E-02
   7106.33  1.2994075E-02
   7106.67  1.3873830E-02
   7107.00  1.4889079E-02
   7107.33  1.6100965E-02
   7107.67  1.7543483E-02
   7108.00  1.9284615E-02
   7108.33  2.1493558E-02
   7108.67  2.4303414E-02
   7109.00  2.7966300E-02
   7109.33  3.3151018E-02
   7109.67  4.0625234E-02
   7110.00  5.1899730E-02
   7110.33  7.1317406E-02
   7110.67  1.0318146E-01
   7111.00  1.4662117E-01
   7111.33  1.8198921E-01
   7111.67  2.0051965E-01
   7112.00  2.2117532E-01
   7112.33  2.6653226E-01
   7112.67  3.0143855E-01
   7113.00  2.7467809E-01
   7113.33  2.1040079E-01
   7113.67  1.6064145E-01
   7114.00  1.2906427E-01
   7114.33  1.1128838E-01
   7114.67  1.0139699E-01
   7115.00  9.7129869E-02
   7115.33  9.7658511E-02
   7115.67  1.0194165E-01
   7116.00  1.0977308E-01
   7116.33  1.2111496E-01
   7116.67  1.3570202E-01
   7117.00  1.5484413E-01
   7117.33  1.7894443E-01
   7117.67  2.0212738E-01
   7118.00  2.1917149E-01
   7118.33  2.2961123E-01
   7118.67  2.3760493E-01
   7119.00  2.4512492E-01
   7119.33  2.5454933E-01
   7119.67  2.6741640E-01
   7120.00  2.8357790E-01
   7120.33  3.0132704E-01
   7120.67  3.1802831E-01
   7121.00  3.3232482E-01
   7121.33  3.4477620E-01
   7121.67  3.5872122E-01
   7122.00  3.7775655E-01
   7122.33  4.0614956E-01
   7122.67  4.4294624E-01
   7123.00  4.8565592E-01
   7123.33  5.2963799E-01
   7123.67  5.6937526E-01
   7124.00  6.0119537E-01
   7124.33  6.2200486E-01
   7124.67  6.3374503E-01
   7125.00  6.3849127E-01
   7125.33  6.3894868E-01
   7125.67  6.3777479E-01
   7126.00  6.3481178E-01
   7126.33  6.2836870E-01
   7126.67  6.1882678E-01
   7127.00  6.0767792E-01
   7127.33  5.9716192E-01
   7127.67  5.8891457E-01
   7128.00  5.8413394E-01
   7128.33  5.8396864E-01
   7128.67  5.8629170E-01
   7129.00  5.8783688E-01
   7129.33  5.8502628E-01
   7129.67  5.7906446E-01
   7130.00  5.7273148E-01
   7130.33  5.6890797E-01
   7130.67  5.6795372E-01
   7131.00  5.6923325E-01
   7131.33  5.7166415E-01
   7131.67  5.7406125E-01
   7132.00  5.7588835E-01
   7132.33  5.7698390E-01
   7132.67  5.7779684E-01
   7133.00  5.7860798E-01
   7133.33  5.7943534E-01
   7133.67  5.8011324E-01
   7134.00  5.8052066E-01
   7134.33  5.8061121E-01
   7134.67  5.8058573E-01
   7135.00  5.8069256E-01
   7135.33  5.8128644E-01
   7135.67  5.8251710E-01
   7136.00  5.8444208E-01
   7136.33  5.8709028E-01
   7136.67  5.9025210E-01
   7137.00  5.9378836E-01
   7137.33  5.9754893E-01
   7137.67  6.0132493E-01
   7138.00  6.0495164E-01
   7138.33  6.0818808E-01
   7138.67  6.1087991E-01
   7139.00  6.1286222E-01
   7139.33  6.1383687E-01
   7139.67  6.1373925E-01
   7140.00  6.1244809E-01
   7140.33  6.0974049E-01
   7140.67  6.0582734E-01
   7141.00  6.0085305E-01
   7141.33  5.9496527E-01
   7141.67  5.8857355E-01
   7142.00  5.8195715E-01
   7142.33  5.7542213E-01
   7142.67  5.6919582E-01
   7143.00  5.6342524E-01
   7143.33  5.5829281E-01
   7143.67  5.5378649E-01
   7144.00  5.4992481E-01
   7144.33  5.4678144E-01
   7144.67  5.4424670E-01
   7145.00  5.4227823E-01
   7145.33  5.4086865E-01
   7145.67  5.3986406E-01
   7146.00  5.3916770E-01
   7146.33  5.3867004E-01
   7146.67  5.3820302E-01
   7147.00  5.3763699E-01
   7147.33  5.3679461E-01
   7147.67  5.3557232E-01
   7148.00  5.3387043E-01
   7148.33  5.3152704E-01
   7148.67  5.2855367E-01
   7149.00  5.2492323E-01
   7149.33  5.2054730E-01
   7149.67  5.1552853E-01
   7150.00  5.0990170E-01
   7150.33  5.0365555E-01
   7150.67  4.9693391E-01
   7151.00  4.8981794E-01
   7151.33  4.8237890E-01
   7151.67  4.7476004E-01
   7152.00  4.6705251E-01
   7152.33  4.5936036E-01
   7152.67  4.5177302E-01
   7153.00  4.4435898E-01
   7153.33  4.3721699E-01
   7153.67  4.3037242E-01
   7154.00  4.2386077E-01
   7154.33  4.1775686E-01
   7154.67  4.1203676E-01
   7155.00  4.0671482E-01
   7155.33  4.0185701E-01
   7155.67  3.9742656E-01
   7156.00  3.9343308E-01
   7156.33  3.8993494E-01
   7156.67  3.8687373E-01
   7157.00  3.8424169E-01
   7157.33  3.8207558E-01
   7157.67  3.8030356E-01
   7158.00  3.7890505E-01
   7158.33  3.7789559E-01
   7158.67  3.7720155E-01
   7159.00  3.7679495E-01
   7159.33  3.7667167E-01
   7159.67  3.7676191E-01
   7160.00  3.7703214E-01
   7160.33  3.7746197E-01
   7160.67  3.7799521E-01
   7161.00  3.7859916E-01
   7161.33  3.7924405E-01
   7161.67  3.7989723E-01
   7162.00  3.8054030E-01
   7162.33  3.8115585E-01
   7162.67  3.8173938E-01
   7163.00  3.8229202E-01
   7163.33  3.8282289E-01
   7163.67  3.8335384E-01
   7164.00  3.8390649E-01
   7164.33  3.8451732E-01
   7164.67  3.8521333E-01
   7165.00  3.8602425E-01
   7165.33  3.8700182E-01
   7165.67  3.8815678E-01
   7166.00  3.8950966E-01
   7166.33  3.9110480E-01
   7166.67  3.9292433E-01
   7167.00  3.9496855E-01
   7167.33  3.9725496E-01
   7167.67  3.9973565E-01
   7168.00  4.0238624E-01
   7168.33  4.0519163E-01
   7168.67  4.0809868E-01
   7169.00  4.1107509E-01
   7169.33  4.1408750E-01
   7169.67  4.1709592E-01
   7170.00  4.2007107E-01
   7170.33  4.2297202E-01
   7170.67  4.2577329E-01
   7171.00  4.2844076E-01
   7171.33  4.3089298E-01
   7171.67  4.3305589E-01
   7172.00  4.3480580E-01
