    FDMNES
    energy     <xanes>
   7097.00  4.0261501E-03
   7097.33  4.1030215E-03
   7097.67  4.1827445E-03
   7098.00  4.2654901E-03
   7098.33  4.3518833E-03
   7098.67  4.4417626E-03
   7099.00  4.5353590E-03
   7099.33  4.6334738E-03
   7099.67  4.7359410E-03
   7100.00  4.8430824E-03
   7100.33  4.9559567E-03
   7100.67  5.0744063E-03
   7101.00  5.1988962E-03
   7101.33  5.3308763E-03
   7101.67  5.4702272E-03
   7102.00  5.6176512E-03
   7102.33  5.7752232E-03
   7102.67  5.9429301E-03
   7103.00  6.1218894E-03
   7103.33  6.3152379E-03
   7103.67  6.5232271E-03
   7104.00  6.7477540E-03
   7104.33  6.9938964E-03
   7104.67  7.2625630E-03
   7105.00  7.5572449E-03
   7105.33  7.8869083E-03
   7105.67  8.2541813E-03
   7106.00  8.6661875E-03
   7106.33  9.1406662E-03
   7106.67  9.6852087E-03
   7107.00  1.0316504E-02
   7107.33  1.1075519E-02
   7107.67  1.1986633E-02
   7108.00  1.3097380E-02
   7108.33  1.4526047E-02
   7108.67  1.6369858E-02
   7109.00  1.8811061E-02
   7109.33  2.2333809E-02
   7109.67  2.7503935E-02
   7110.00  3.5431708E-02
   7110.33  4.9336000E-02
   7110.67  7.2746167E-02
   7111.00  1.0663843E-01
   7111.33  1.3971346E-01
   7111.67  1.5981595E-01
   7112.00  1.6461099E-01
   7112.33  1.4845453E-01
   7112.67  1.1877270E-01
   7113.00  8.9107453E-02
   7113.33  6.9099273E-02
   7113.67  5.6491356E-02
   7114.00  4.9045086E-02
   7114.33  4.4629954E-02
   7114.67  4.0842886E-02
   7115.00  3.7156281E-02
   7115.33  3.4962160E-02
   7115.67  3.4330965E-02
   7116.00  3.4816652E-02
   7116.33  3.6021735E-02
   7116.67  3.7661150E-02
   7117.00  3.9847967E-02
   7117.33  4.2927503E-02
   7117.67  4.6842724E-02
   7118.00  5.1358027E-02
   7118.33  5.5989249E-02
   7118.67  6.0305937E-02
   7119.00  6.4211801E-02
   7119.33  6.7674062E-02
   7119.67  7.0701666E-02
   7120.00  7.3381320E-02
   7120.33  7.6069418E-02
   7120.67  7.9208823E-02
   7121.00  8.3200589E-02
   7121.33  8.8766202E-02
   7121.67  9.6384695E-02
   7122.00  1.0670714E-01
   7122.33  1.2105554E-01
   7122.67  1.3983176E-01
   7123.00  1.6312766E-01
   7123.33  1.8840531E-01
   7123.67  2.0923496E-01
   7124.00  2.2289452E-01
   7124.33  2.3332508E-01
   7124.67  2.4681415E-01
   7125.00  2.6532540E-01
   7125.33  2.8788176E-01
   7125.67  3.1056837E-01
   7126.00  3.3136675E-01
   7126.33  3.5144090E-01
   7126.67  3.7468475E-01
   7127.00  4.0397834E-01
   7127.33  4.4150273E-01
   7127.67  4.8551244E-01
   7128.00  5.3437681E-01
   7128.33  5.8624956E-01
   7128.67  6.3846368E-01
   7129.00  6.8886862E-01
   7129.33  7.3438483E-01
   7129.67  7.7318434E-01
   7130.00  8.0375546E-01
   7130.33  8.2510064E-01
   7130.67  8.4094936E-01
   7131.00  8.5493494E-01
   7131.33  8.7084986E-01
   7131.67  8.8969812E-01
   7132.00  9.1052013E-01
   7132.33  9.3133197E-01
   7132.67  9.5109169E-01
   7133.00  9.6990166E-01
   7133.33  9.8760142E-01
   7133.67  1.0031714E+00
   7134.00  1.0150105E+00
   7134.33  1.0207115E+00
   7134.67  1.0198339E+00
   7135.00  1.0119536E+00
   7135.33  9.9642757E-01
   7135.67  9.7495238E-01
   7136.00  9.4848346E-01
   7136.33  9.1767953E-01
   7136.67  8.8419221E-01
   7137.00  8.4908251E-01
   7137.33  8.1353316E-01
   7137.67  7.7867216E-01
   7138.00  7.4520874E-01
   7138.33  7.1392746E-01
   7138.67  6.8487361E-01
   7139.00  6.5816117E-01
   7139.33  6.3415008E-01
   7139.67  6.1258720E-01
   7140.00  5.9353183E-01
   7140.33  5.7739513E-01
   7140.67  5.6391833E-01
   7141.00  5.5310008E-01
   7141.33  5.4514690E-01
   7141.67  5.3948144E-01
   7142.00  5.3577333E-01
   7142.33  5.3375772E-01
   7142.67  5.3280210E-01
   7143.00  5.3258418E-01
   7143.33  5.3288410E-01
   7143.67  5.3345766E-01
   7144.00  5.3418426E-01
   7144.33  5.3495346E-01
   7144.67  5.3566244E-01
   7145.00  5.3623879E-01
   7145.33  5.3659338E-01
   7145.67  5.3671640E-01
   7146.00  5.3660599E-01
   7146.33  5.3626371E-01
   7146.67  5.3576321E-01
   7147.00  5.3514927E-01
   7147.33  5.3445599E-01
   7147.67  5.3371701E-01
   7148.00  5.3294179E-01
   7148.33  5.3212898E-01
   7148.67  5.3127300E-01
   7149.00  5.3035668E-01
   7149.33  5.2934577E-01
   7149.67  5.2822819E-01
   7150.00  5.2698742E-01
   7150.33  5.2558870E-01
   7150.67  5.2403253E-01
   7151.00  5.2230324E-01
   7151.33  5.2035171E-01
   7151.67  5.1816756E-01
   7152.00  5.1570969E-01
   7152.33  5.1287943E-01
   7152.67  5.0965635E-01
   7153.00  5.0598615E-01
   7153.33  5.0174574E-01
   7153.67  4.9694705E-01
   7154.00  4.9155405E-01
   7154.33  4.8545613E-01
   7154.67  4.7870938E-01
   7155.00  4.7130250E-01
   7155.33  4.6314694E-01
   7155.67  4.5432872E-01
   7156.00  4.4485783E-01
   7156.33  4.3468103E-01
   7156.67  4.2392096E-01
   7157.00  4.1263209E-01
   7157.33  4.0084293E-01
   7157.67  3.8871831E-01
   7158.00  3.7637432E-01
   7158.33  3.6396415E-01
   7158.67  3.5168027E-01
   7159.00  3.3969618E-01
   7159.33  3.2828406E-01
   7159.67  3.1758461E-01
   7160.00  3.0776106E-01
   7160.33  2.9911029E-01
   7160.67  2.9163865E-01
   7161.00  2.8543884E-01
   7161.33  2.8075705E-01
   7161.67  2.7746476E-01
   7162.00  2.7556065E-01
   7162.33  2.7516789E-01
   7162.67  2.7603469E-01
   7163.00  2.7806903E-01
   7163.33  2.8126900E-01
   7163.67  2.8535146E-01
   7164.00  2.9017504E-01
   7164.33  2.9564636E-01
   7164.67  3.0153578E-01
   7165.00  3.0771807E-01
   7165.33  3.1408192E-01
   7165.67  3.2049704E-01
   7166.00  3.2689038E-01
   7166.33  3.3319220E-01
   7166.67  3.3937623E-01
   7167.00  3.4543204E-01
   7167.33  3.5135690E-01
   7167.67  3.5719242E-01
   7168.00  3.6296737E-01
   7168.33  3.6871235E-01
   7168.67  3.7445831E-01
   7169.00  3.8021910E-01
   7169.33  3.8599775E-01
   7169.67  3.9177437E-01
   7170.00  3.9751787E-01
   7170.33  4.0316361E-01
   7170.67  4.0864877E-01
   7171.00  4.1389046E-01
   7171.33  4.1870812E-01
   7171.67  4.2294505E-01
   7172.00  4.2636302E-01
