    FDMNES
    energy     <xanes>
   7097.00  4.7055921E-03
   7097.33  4.8124495E-03
   7097.67  4.9240546E-03
   7098.00  5.0407332E-03
   7098.33  5.1635932E-03
   7098.67  5.2924192E-03
   7099.00  5.4276614E-03
   7099.33  5.5707825E-03
   7099.67  5.7215719E-03
   7100.00  5.8806711E-03
   7100.33  6.0500712E-03
   7100.67  6.2295981E-03
   7101.00  6.4202001E-03
   7101.33  6.6246889E-03
   7101.67  6.8429978E-03
   7102.00  7.0765914E-03
   7102.33  7.3296209E-03
   7102.67  7.6022877E-03
   7103.00  7.8969773E-03
   7103.33  8.2201652E-03
   7103.67  8.5726989E-03
   7104.00  8.9587271E-03
   7104.33  9.3890750E-03
   7104.67  9.8661864E-03
   7105.00  1.0397901E-02
   7105.33  1.1004000E-02
   7105.67  1.1691152E-02
   7106.00  1.2475866E-02
   7106.33  1.3398829E-02
   7106.67  1.4479253E-02
   7107.00  1.5757418E-02
   7107.33  1.7331966E-02
   7107.67  1.9266550E-02
   7108.00  2.1682707E-02
   7108.33  2.4885333E-02
   7108.67  2.9145383E-02
   7109.00  3.4971521E-02
   7109.33  4.3747020E-02
   7109.67  5.7221525E-02
   7110.00  7.8874931E-02
   7110.33  1.1869534E-01
   7110.67  1.8422749E-01
   7111.00  2.6073900E-01
   7111.33  2.9060130E-01
   7111.67  2.8074704E-01
   7112.00  2.5182494E-01
   7112.33  2.2007606E-01
   7112.67  1.9227832E-01
   7113.00  1.6623912E-01
   7113.33  1.4115371E-01
   7113.67  1.1989308E-01
   7114.00  1.0378928E-01
   7114.33  9.2249065E-02
   7114.67  8.3485625E-02
   7115.00  7.7332086E-02
   7115.33  7.3992120E-02
   7115.67  7.2838453E-02
   7116.00  7.3656405E-02
   7116.33  7.6544673E-02
   7116.67  8.1169022E-02
   7117.00  8.7375640E-02
   7117.33  9.5066131E-02
   7117.67  1.0381549E-01
   7118.00  1.1342379E-01
   7118.33  1.2350055E-01
   7118.67  1.3292012E-01
   7119.00  1.4063102E-01
   7119.33  1.4680971E-01
   7119.67  1.5310411E-01
   7120.00  1.5998381E-01
   7120.33  1.6764764E-01
   7120.67  1.7697852E-01
   7121.00  1.8940045E-01
   7121.33  2.0716556E-01
   7121.67  2.3091814E-01
   7122.00  2.6116732E-01
   7122.33  2.9849580E-01
   7122.67  3.4101622E-01
   7123.00  3.8702064E-01
   7123.33  4.3367145E-01
   7123.67  4.7721141E-01
   7124.00  5.1448160E-01
   7124.33  5.4202598E-01
   7124.67  5.6092368E-01
   7125.00  5.7267649E-01
   7125.33  5.7844333E-01
   7125.67  5.8006917E-01
   7126.00  5.7866470E-01
   7126.33  5.7568087E-01
   7126.67  5.7232636E-01
   7127.00  5.6880313E-01
   7127.33  5.6490239E-01
   7127.67  5.6049254E-01
   7128.00  5.5598192E-01
   7128.33  5.5268460E-01
   7128.67  5.5174717E-01
   7129.00  5.5385245E-01
   7129.33  5.5941301E-01
   7129.67  5.6724948E-01
   7130.00  5.7621416E-01
   7130.33  5.8492717E-01
   7130.67  5.9266206E-01
   7131.00  5.9941727E-01
   7131.33  6.0558105E-01
   7131.67  6.1173643E-01
   7132.00  6.1819442E-01
   7132.33  6.2526569E-01
   7132.67  6.3316909E-01
   7133.00  6.4231169E-01
   7133.33  6.5356937E-01
   7133.67  6.6720813E-01
   7134.00  6.8315020E-01
   7134.33  7.0057049E-01
   7134.67  7.1749741E-01
   7135.00  7.3207311E-01
   7135.33  7.4165631E-01
   7135.67  7.4529393E-01
   7136.00  7.4259910E-01
   7136.33  7.3375795E-01
   7136.67  7.2139291E-01
   7137.00  7.0742773E-01
   7137.33  6.9378343E-01
   7137.67  6.8160863E-01
   7138.00  6.7136843E-01
   7138.33  6.6342916E-01
   7138.67  6.5743233E-01
   7139.00  6.5325678E-01
   7139.33  6.5099435E-01
   7139.67  6.5033873E-01
   7140.00  6.5118007E-01
   7140.33  6.5335185E-01
   7140.67  6.5616879E-01
   7141.00  6.5901927E-01
   7141.33  6.6097143E-01
   7141.67  6.6128787E-01
   7142.00  6.5938462E-01
   7142.33  6.5458926E-01
   7142.67  6.4733153E-01
   7143.00  6.3804567E-01
   7143.33  6.2729600E-01
   7143.67  6.1597143E-01
   7144.00  6.0455423E-01
   7144.33  5.9342823E-01
   7144.67  5.8273840E-01
   7145.00  5.7256146E-01
   7145.33  5.6302273E-01
   7145.67  5.5408783E-01
   7146.00  5.4577586E-01
   7146.33  5.3816938E-01
   7146.67  5.3117290E-01
   7147.00  5.2475692E-01
   7147.33  5.1894579E-01
   7147.67  5.1362978E-01
   7148.00  5.0877084E-01
   7148.33  5.0436544E-01
   7148.67  5.0030865E-01
   7149.00  4.9656418E-01
   7149.33  4.9313068E-01
   7149.67  4.8993909E-01
   7150.00  4.8695944E-01
   7150.33  4.8417511E-01
   7150.67  4.8151839E-01
   7151.00  4.7894148E-01
   7151.33  4.7637755E-01
   7151.67  4.7374122E-01
   7152.00  4.7095241E-01
   7152.33  4.6788308E-01
   7152.67  4.6447050E-01
   7153.00  4.6064485E-01
   7153.33  4.5628470E-01
   7153.67  4.5141164E-01
   7154.00  4.4601229E-01
   7154.33  4.4002324E-01
   7154.67  4.3352503E-01
   7155.00  4.2653628E-01
   7155.33  4.1902341E-01
   7155.67  4.1107283E-01
   7156.00  4.0271357E-01
   7156.33  3.9394164E-01
   7156.67  3.8485644E-01
   7157.00  3.7551497E-01
   7157.33  3.6597271E-01
   7157.67  3.5633859E-01
   7158.00  3.4669348E-01
   7158.33  3.3715170E-01
   7158.67  3.2781490E-01
   7159.00  3.1878770E-01
   7159.33  3.1025129E-01
   7159.67  3.0227693E-01
   7160.00  2.9496582E-01
   7160.33  2.8851739E-01
   7160.67  2.8291707E-01
   7161.00  2.7821501E-01
   7161.33  2.7456127E-01
   7161.67  2.7184554E-01
   7162.00  2.7005549E-01
   7162.33  2.6926955E-01
   7162.67  2.6932478E-01
   7163.00  2.7016644E-01
   7163.33  2.7181464E-01
   7163.67  2.7411027E-01
   7164.00  2.7699684E-01
   7164.33  2.8047976E-01
   7164.67  2.8444013E-01
   7165.00  2.8884134E-01
   7165.33  2.9370112E-01
   7165.67  2.9894262E-01
   7166.00  3.0454695E-01
   7166.33  3.1053641E-01
   7166.67  3.1684685E-01
   7167.00  3.2345733E-01
   7167.33  3.3037315E-01
   7167.67  3.3752561E-01
   7168.00  3.4487949E-01
   7168.33  3.5240801E-01
   7168.67  3.6004028E-01
   7169.00  3.6772813E-01
   7169.33  3.7541192E-01
   7169.67  3.8303043E-01
   7170.00  3.9052924E-01
   7170.33  3.9781987E-01
   7170.67  4.0485166E-01
   7171.00  4.1154354E-01
   7171.33  4.1769458E-01
   7171.67  4.2312275E-01
   7172.00  4.2751965E-01
