    FDMNES
    energy     <xanes>
   7097.00  5.1599096E-03
   7097.33  5.2817414E-03
   7097.67  5.4091373E-03
   7098.00  5.5424770E-03
   7098.33  5.6830532E-03
   7098.67  5.8306067E-03
   7099.00  5.9856556E-03
   7099.33  6.1498936E-03
   7099.67  6.3230570E-03
   7100.00  6.5058721E-03
   7100.33  6.7006173E-03
   7100.67  6.9070510E-03
   7101.00  7.1262244E-03
   7101.33  7.3612989E-03
   7101.67  7.6121156E-03
   7102.00  7.8802538E-03
   7102.33  8.1702687E-03
   7102.67  8.4822178E-03
   7103.00  8.8185836E-03
   7103.33  9.1862401E-03
   7103.67  9.5857670E-03
   7104.00  1.0021291E-02
   7104.33  1.0503803E-02
   7104.67  1.1035143E-02
   7105.00  1.1622676E-02
   7105.33  1.2285331E-02
   7105.67  1.3028140E-02
   7106.00  1.3865521E-02
   7106.33  1.4833489E-02
   7106.67  1.5945949E-02
   7107.00  1.7234946E-02
   7107.33  1.8779243E-02
   7107.67  2.0621464E-02
   7108.00  2.2847241E-02
   7108.33  2.5668783E-02
   7108.67  2.9247344E-02
   7109.00  3.3888479E-02
   7109.33  4.0395225E-02
   7109.67  4.9656326E-02
   7110.00  6.3409848E-02
   7110.33  8.6606130E-02
   7110.67  1.2419241E-01
   7111.00  1.7646678E-01
   7111.33  2.3104498E-01
   7111.67  2.8560522E-01
   7112.00  3.3840168E-01
   7112.33  3.6152337E-01
   7112.67  3.5047451E-01
   7113.00  3.2380892E-01
   7113.33  2.9722202E-01
   7113.67  2.7447257E-01
   7114.00  2.5629070E-01
   7114.33  2.4501130E-01
   7114.67  2.4161193E-01
   7115.00  2.4697026E-01
   7115.33  2.6140168E-01
   7115.67  2.7996779E-01
   7116.00  2.9651806E-01
   7116.33  3.0286335E-01
   7116.67  2.9771669E-01
   7117.00  2.8321540E-01
   7117.33  2.6314269E-01
   7117.67  2.4173895E-01
   7118.00  2.2082680E-01
   7118.33  2.0176316E-01
   7118.67  1.8497507E-01
   7119.00  1.7068717E-01
   7119.33  1.5910669E-01
   7119.67  1.4964945E-01
   7120.00  1.4215691E-01
   7120.33  1.3701772E-01
   7120.67  1.3433791E-01
   7121.00  1.3433184E-01
   7121.33  1.3722894E-01
   7121.67  1.4240322E-01
   7122.00  1.4965212E-01
   7122.33  1.5918291E-01
   7122.67  1.7085921E-01
   7123.00  1.8483672E-01
   7123.33  2.0157658E-01
   7123.67  2.2080309E-01
   7124.00  2.4238508E-01
   7124.33  2.6620983E-01
   7124.67  2.9144050E-01
   7125.00  3.1737922E-01
   7125.33  3.4289236E-01
   7125.67  3.6685565E-01
   7126.00  3.8858873E-01
   7126.33  4.0761513E-01
   7126.67  4.2463451E-01
   7127.00  4.4020611E-01
   7127.33  4.5491940E-01
   7127.67  4.6964301E-01
   7128.00  4.8510901E-01
   7128.33  5.0221807E-01
   7128.67  5.2112736E-01
   7129.00  5.4175859E-01
   7129.33  5.6376798E-01
   7129.67  5.8618884E-01
   7130.00  6.0822714E-01
   7130.33  6.2891556E-01
   7130.67  6.4788239E-01
   7131.00  6.6498748E-01
   7131.33  6.8024014E-01
   7131.67  6.9445616E-01
   7132.00  7.0841970E-01
   7132.33  7.2326770E-01
   7132.67  7.3976617E-01
   7133.00  7.5825325E-01
   7133.33  7.7865538E-01
   7133.67  7.9970587E-01
   7134.00  8.1994664E-01
   7134.33  8.3671050E-01
   7134.67  8.4757512E-01
   7135.00  8.5000458E-01
   7135.33  8.4039810E-01
   7135.67  8.1964471E-01
   7136.00  7.8924456E-01
   7136.33  7.5184012E-01
   7136.67  7.1218331E-01
   7137.00  6.7323258E-01
   7137.33  6.3781346E-01
   7137.67  6.0689884E-01
   7138.00  5.8099820E-01
   7138.33  5.6081514E-01
   7138.67  5.4541524E-01
   7139.00  5.3436476E-01
   7139.33  5.2752162E-01
   7139.67  5.2378135E-01
   7140.00  5.2262372E-01
   7140.33  5.2375316E-01
   7140.67  5.2642507E-01
   7141.00  5.3024848E-01
   7141.33  5.3485949E-01
   7141.67  5.3969922E-01
   7142.00  5.4434401E-01
   7142.33  5.4821867E-01
   7142.67  5.5097899E-01
   7143.00  5.5235006E-01
   7143.33  5.5196143E-01
   7143.67  5.5001271E-01
   7144.00  5.4664526E-01
   7144.33  5.4199943E-01
   7144.67  5.3656654E-01
   7145.00  5.3065569E-01
   7145.33  5.2458131E-01
   7145.67  5.1864281E-01
   7146.00  5.1303864E-01
   7146.33  5.0802235E-01
   7146.67  5.0365892E-01
   7147.00  5.0001743E-01
   7147.33  4.9724021E-01
   7147.67  4.9525007E-01
   7148.00  4.9404363E-01
   7148.33  4.9368330E-01
   7148.67  4.9401877E-01
   7149.00  4.9498713E-01
   7149.33  4.9656952E-01
   7149.67  4.9859993E-01
   7150.00  5.0099006E-01
   7150.33  5.0366872E-01
   7150.67  5.0650458E-01
   7151.00  5.0941960E-01
   7151.33  5.1233967E-01
   7151.67  5.1520989E-01
   7152.00  5.1799512E-01
   7152.33  5.2065026E-01
   7152.67  5.2316963E-01
   7153.00  5.2554378E-01
   7153.33  5.2775088E-01
   7153.67  5.2981237E-01
   7154.00  5.3173455E-01
   7154.33  5.3351261E-01
   7154.67  5.3517646E-01
   7155.00  5.3673911E-01
   7155.33  5.3820592E-01
   7155.67  5.3960387E-01
   7156.00  5.4094655E-01
   7156.33  5.4224394E-01
   7156.67  5.4351485E-01
   7157.00  5.4477003E-01
   7157.33  5.4602017E-01
   7157.67  5.4727527E-01
   7158.00  5.4854155E-01
   7158.33  5.4982553E-01
   7158.67  5.5112586E-01
   7159.00  5.5244049E-01
   7159.33  5.5376660E-01
   7159.67  5.5509745E-01
   7160.00  5.5642713E-01
   7160.33  5.5774202E-01
   7160.67  5.5902098E-01
   7161.00  5.6023696E-01
   7161.33  5.6134840E-01
   7161.67  5.6233676E-01
   7162.00  5.6317325E-01
   7162.33  5.6379799E-01
   7162.67  5.6419590E-01
   7163.00  5.6433266E-01
   7163.33  5.6413148E-01
   7163.67  5.6359375E-01
   7164.00  5.6269243E-01
   7164.33  5.6135307E-01
   7164.67  5.5960603E-01
   7165.00  5.5744393E-01
   7165.33  5.5481738E-01
   7165.67  5.5179128E-01
   7166.00  5.4838579E-01
   7166.33  5.4459193E-01
   7166.67  5.4049808E-01
   7167.00  5.3614691E-01
   7167.33  5.3156372E-01
   7167.67  5.2682454E-01
   7168.00  5.2197079E-01
   7168.33  5.1703967E-01
   7168.67  5.1208276E-01
   7169.00  5.0713506E-01
   7169.33  5.0224046E-01
   7169.67  4.9742841E-01
   7170.00  4.9272812E-01
   7170.33  4.8819342E-01
   7170.67  4.8384796E-01
   7171.00  4.7973919E-01
   7171.33  4.7598997E-01
   7171.67  4.7270016E-01
   7172.00  4.7004377E-01
