    FDMNES
    energy     <xanes>
   7097.00  5.0991487E-03
   7097.33  5.2203750E-03
   7097.67  5.3472404E-03
   7098.00  5.4801378E-03
   7098.33  5.6203915E-03
   7098.67  5.7677501E-03
   7099.00  5.9227527E-03
   7099.33  6.0871435E-03
   7099.67  6.2606699E-03
   7100.00  6.4440913E-03
   7100.33  6.6397670E-03
   7100.67  6.8474721E-03
   7101.00  7.0683109E-03
   7101.33  7.3055753E-03
   7101.67  7.5591333E-03
   7102.00  7.8306505E-03
   7102.33  8.1248952E-03
   7102.67  8.4419716E-03
   7103.00  8.7845063E-03
   7103.33  9.1597277E-03
   7103.67  9.5683020E-03
   7104.00  1.0014604E-02
   7104.33  1.0510233E-02
   7104.67  1.1057197E-02
   7105.00  1.1663309E-02
   7105.33  1.2348586E-02
   7105.67  1.3118414E-02
   7106.00  1.3988071E-02
   7106.33  1.4995647E-02
   7106.67  1.6155875E-02
   7107.00  1.7502624E-02
   7107.33  1.9119076E-02
   7107.67  2.1050174E-02
   7108.00  2.3386245E-02
   7108.33  2.6351225E-02
   7108.67  3.0115523E-02
   7109.00  3.5002691E-02
   7109.33  4.1865744E-02
   7109.67  5.1657986E-02
   7110.00  6.6252349E-02
   7110.33  9.1010794E-02
   7110.67  1.3126001E-01
   7111.00  1.8640465E-01
   7111.33  2.3493193E-01
   7111.67  2.6594842E-01
   7112.00  2.9196057E-01
   7112.33  3.3366579E-01
   7112.67  3.8694041E-01
   7113.00  4.3674117E-01
   7113.33  4.6835011E-01
   7113.67  4.7492479E-01
   7114.00  4.5103969E-01
   7114.33  3.9599961E-01
   7114.67  3.3133529E-01
   7115.00  2.7333606E-01
   7115.33  2.3049413E-01
   7115.67  1.9962191E-01
   7116.00  1.7789171E-01
   7116.33  1.6307331E-01
   7116.67  1.5190393E-01
   7117.00  1.4264908E-01
   7117.33  1.3429498E-01
   7117.67  1.2675461E-01
   7118.00  1.2034548E-01
   7118.33  1.1522465E-01
   7118.67  1.1100744E-01
   7119.00  1.0761977E-01
   7119.33  1.0517321E-01
   7119.67  1.0346761E-01
   7120.00  1.0241151E-01
   7120.33  1.0203195E-01
   7120.67  1.0220341E-01
   7121.00  1.0291781E-01
   7121.33  1.0432649E-01
   7121.67  1.0642711E-01
   7122.00  1.0925226E-01
   7122.33  1.1291460E-01
   7122.67  1.1733229E-01
   7123.00  1.2250359E-01
   7123.33  1.2848949E-01
   7123.67  1.3513183E-01
   7124.00  1.4234234E-01
   7124.33  1.5003900E-01
   7124.67  1.5799736E-01
   7125.00  1.6606449E-01
   7125.33  1.7416358E-01
   7125.67  1.8246079E-01
   7126.00  1.9132560E-01
   7126.33  2.0150777E-01
   7126.67  2.1351702E-01
   7127.00  2.2786209E-01
   7127.33  2.4533859E-01
   7127.67  2.6586120E-01
   7128.00  2.8951157E-01
   7128.33  3.1660202E-01
   7128.67  3.4648379E-01
   7129.00  3.7878536E-01
   7129.33  4.1313065E-01
   7129.67  4.4839443E-01
   7130.00  4.8354709E-01
   7130.33  5.1735518E-01
   7130.67  5.4988082E-01
   7131.00  5.8233146E-01
   7131.33  6.1762395E-01
   7131.67  6.5828388E-01
   7132.00  7.0600321E-01
   7132.33  7.6178725E-01
   7132.67  8.2211853E-01
   7133.00  8.8263050E-01
   7133.33  9.3671880E-01
   7133.67  9.8119058E-01
   7134.00  1.0156423E+00
   7134.33  1.0410066E+00
   7134.67  1.0604841E+00
   7135.00  1.0749804E+00
   7135.33  1.0837555E+00
   7135.67  1.0867645E+00
   7136.00  1.0835130E+00
   7136.33  1.0731470E+00
   7136.67  1.0570706E+00
   7137.00  1.0362861E+00
   7137.33  1.0119098E+00
   7137.67  9.8596711E-01
   7138.00  9.5974424E-01
   7138.33  9.3454838E-01
   7138.67  9.1103667E-01
   7139.00  8.8953164E-01
   7139.33  8.7034568E-01
   7139.67  8.5305569E-01
   7140.00  8.3744513E-01
   7140.33  8.2343724E-01
   7140.67  8.1063441E-01
   7141.00  7.9887386E-01
   7141.33  7.8807528E-01
   7141.67  7.7791972E-01
   7142.00  7.6818534E-01
   7142.33  7.5857944E-01
   7142.67  7.4878086E-01
   7143.00  7.3856844E-01
   7143.33  7.2768538E-01
   7143.67  7.1611780E-01
   7144.00  7.0386424E-01
   7144.33  6.9091793E-01
   7144.67  6.7748211E-01
   7145.00  6.6369197E-01
   7145.33  6.4969255E-01
   7145.67  6.3567149E-01
   7146.00  6.2175837E-01
   7146.33  6.0811393E-01
   7146.67  5.9481628E-01
   7147.00  5.8194039E-01
   7147.33  5.6961459E-01
   7147.67  5.5782648E-01
   7148.00  5.4660572E-01
   7148.33  5.3604756E-01
   7148.67  5.2608789E-01
   7149.00  5.1672710E-01
   7149.33  5.0803605E-01
   7149.67  4.9992815E-01
   7150.00  4.9237043E-01
   7150.33  4.8535631E-01
   7150.67  4.7873976E-01
   7151.00  4.7243578E-01
   7151.33  4.6635503E-01
   7151.67  4.6034599E-01
   7152.00  4.5429785E-01
   7152.33  4.4807400E-01
   7152.67  4.4160933E-01
   7153.00  4.3487111E-01
   7153.33  4.2784438E-01
   7153.67  4.2063558E-01
   7154.00  4.1334492E-01
   7154.33  4.0612035E-01
   7154.67  3.9910060E-01
   7155.00  3.9240218E-01
   7155.33  3.8619295E-01
   7155.67  3.8050164E-01
   7156.00  3.7537452E-01
   7156.33  3.7091195E-01
   7156.67  3.6704098E-01
   7157.00  3.6374628E-01
   7157.33  3.6106473E-01
   7157.67  3.5888772E-01
   7158.00  3.5717657E-01
   7158.33  3.5593764E-01
   7158.67  3.5507273E-01
   7159.00  3.5454044E-01
   7159.33  3.5433200E-01
   7159.67  3.5437952E-01
   7160.00  3.5466263E-01
   7160.33  3.5519191E-01
   7160.67  3.5593454E-01
   7161.00  3.5689385E-01
   7161.33  3.5810658E-01
   7161.67  3.5955545E-01
   7162.00  3.6125006E-01
   7162.33  3.6323186E-01
   7162.67  3.6547465E-01
   7163.00  3.6797915E-01
   7163.33  3.7077312E-01
   7163.67  3.7381431E-01
   7164.00  3.7708982E-01
   7164.33  3.8060711E-01
   7164.67  3.8431540E-01
   7165.00  3.8819085E-01
   7165.33  3.9221995E-01
   7165.67  3.9635249E-01
   7166.00  4.0055819E-01
   7166.33  4.0480707E-01
   7166.67  4.0906401E-01
   7167.00  4.1330278E-01
   7167.33  4.1747880E-01
   7167.67  4.2155971E-01
   7168.00  4.2551947E-01
   7168.33  4.2931578E-01
   7168.67  4.3294501E-01
   7169.00  4.3639087E-01
   7169.33  4.3961546E-01
   7169.67  4.4263607E-01
   7170.00  4.4545034E-01
   7170.33  4.4803351E-01
   7170.67  4.5041342E-01
   7171.00  4.5258875E-01
   7171.33  4.5451857E-01
   7171.67  4.5618849E-01
   7172.00  4.5753395E-01
