    FDMNES
    energy     <xanes>
   7097.00  3.9242656E-03
   7097.33  3.9962993E-03
   7097.67  4.0708820E-03
   7098.00  4.1481600E-03
   7098.33  4.2286812E-03
   7098.67  4.3122928E-03
   7099.00  4.3991908E-03
   7099.33  4.4900712E-03
   7099.67  4.5847751E-03
   7100.00  4.6835733E-03
   7100.33  4.7873758E-03
   7100.67  4.8960277E-03
   7101.00  5.0099171E-03
   7101.33  5.1302766E-03
   7101.67  5.2569789E-03
   7102.00  5.3906047E-03
   7102.33  5.5328986E-03
   7102.67  5.6838140E-03
   7103.00  5.8442671E-03
   7103.33  6.0168652E-03
   7103.67  6.2017669E-03
   7104.00  6.4005146E-03
   7104.33  6.6172791E-03
   7104.67  6.8527339E-03
   7105.00  7.1096918E-03
   7105.33  7.3954317E-03
   7105.67  7.7119731E-03
   7106.00  8.0650036E-03
   7106.33  8.4687534E-03
   7106.67  8.9291145E-03
   7107.00  9.4592831E-03
   7107.33  1.0091721E-02
   7107.67  1.0845347E-02
   7108.00  1.1757355E-02
   7108.33  1.2920320E-02
   7108.67  1.4409356E-02
   7109.00  1.6365685E-02
   7109.33  1.9164298E-02
   7109.67  2.3240985E-02
   7110.00  2.9450242E-02
   7110.33  4.0237389E-02
   7110.67  5.7966449E-02
   7111.00  8.2215753E-02
   7111.33  1.0634830E-01
   7111.67  1.2874615E-01
   7112.00  1.4454247E-01
   7112.33  1.3661176E-01
   7112.67  1.0920885E-01
   7113.00  8.0759402E-02
   7113.33  6.1652919E-02
   7113.67  4.9891526E-02
   7114.00  4.3787361E-02
   7114.33  4.1705789E-02
   7114.67  3.9407399E-02
   7115.00  3.5220945E-02
   7115.33  3.1762373E-02
   7115.67  2.9872478E-02
   7116.00  2.9181451E-02
   7116.33  2.9404510E-02
   7116.67  3.0221054E-02
   7117.00  3.1519232E-02
   7117.33  3.3248531E-02
   7117.67  3.5295003E-02
   7118.00  3.7663343E-02
   7118.33  4.0493853E-02
   7118.67  4.3831560E-02
   7119.00  4.7604487E-02
   7119.33  5.1397726E-02
   7119.67  5.4744484E-02
   7120.00  5.7573471E-02
   7120.33  6.0030302E-02
   7120.67  6.2376634E-02
   7121.00  6.4785129E-02
   7121.33  6.7509118E-02
   7121.67  7.0822949E-02
   7122.00  7.5098285E-02
   7122.33  8.1053944E-02
   7122.67  8.9096980E-02
   7123.00  9.9736659E-02
   7123.33  1.1380405E-01
   7123.67  1.3102770E-01
   7124.00  1.5138125E-01
   7124.33  1.7624904E-01
   7124.67  2.0773102E-01
   7125.00  2.4882031E-01
   7125.33  3.0358498E-01
   7125.67  3.6857590E-01
   7126.00  4.3530434E-01
   7126.33  4.8662757E-01
   7126.67  5.1567260E-01
   7127.00  5.2602084E-01
   7127.33  5.2527863E-01
   7127.67  5.2208215E-01
   7128.00  5.2145948E-01
   7128.33  5.2905516E-01
   7128.67  5.4778782E-01
   7129.00  5.8073727E-01
   7129.33  6.3395215E-01
   7129.67  7.0878034E-01
   7130.00  8.0658649E-01
   7130.33  9.2504597E-01
   7130.67  1.0455949E+00
   7131.00  1.1465647E+00
   7131.33  1.2038808E+00
   7131.67  1.2210761E+00
   7132.00  1.2052292E+00
   7132.33  1.1595546E+00
   7132.67  1.0922429E+00
   7133.00  1.0102689E+00
   7133.33  9.2478969E-01
   7133.67  8.4691399E-01
   7134.00  7.8226929E-01
   7134.33  7.3407512E-01
   7134.67  6.9778853E-01
   7135.00  6.7010477E-01
   7135.33  6.4871107E-01
   7135.67  6.3120185E-01
   7136.00  6.1690544E-01
   7136.33  6.0590673E-01
   7136.67  5.9776126E-01
   7137.00  5.9239992E-01
   7137.33  5.8998535E-01
   7137.67  5.8992522E-01
   7138.00  5.9192813E-01
   7138.33  5.9581654E-01
   7138.67  6.0097204E-01
   7139.00  6.0705023E-01
   7139.33  6.1375751E-01
   7139.67  6.2073172E-01
   7140.00  6.2779807E-01
   7140.33  6.3485030E-01
   7140.67  6.4188619E-01
   7141.00  6.4896938E-01
   7141.33  6.5625140E-01
   7141.67  6.6387191E-01
   7142.00  6.7197285E-01
   7142.33  6.8076445E-01
   7142.67  6.9022594E-01
   7143.00  7.0035018E-01
   7143.33  7.1112627E-01
   7143.67  7.2222832E-01
   7144.00  7.3324137E-01
   7144.33  7.4330658E-01
   7144.67  7.5150564E-01
   7145.00  7.5683135E-01
   7145.33  7.5766171E-01
   7145.67  7.5369056E-01
   7146.00  7.4466010E-01
   7146.33  7.3027173E-01
   7146.67  7.1197805E-01
   7147.00  6.9078689E-01
   7147.33  6.6771590E-01
   7147.67  6.4403767E-01
   7148.00  6.2044506E-01
   7148.33  5.9756483E-01
   7148.67  5.7563583E-01
   7149.00  5.5479291E-01
   7149.33  5.3523550E-01
   7149.67  5.1681830E-01
   7150.00  4.9951673E-01
   7150.33  4.8344306E-01
   7150.67  4.6847062E-01
   7151.00  4.5458347E-01
   7151.33  4.4183794E-01
   7151.67  4.3003433E-01
   7152.00  4.1912056E-01
   7152.33  4.0914709E-01
   7152.67  3.9995463E-01
   7153.00  3.9149087E-01
   7153.33  3.8376515E-01
   7153.67  3.7660680E-01
   7154.00  3.6992581E-01
   7154.33  3.6364562E-01
   7154.67  3.5758776E-01
   7155.00  3.5163712E-01
   7155.33  3.4567502E-01
   7155.67  3.3962337E-01
   7156.00  3.3346021E-01
   7156.33  3.2721449E-01
   7156.67  3.2100076E-01
   7157.00  3.1495267E-01
   7157.33  3.0929542E-01
   7157.67  3.0416304E-01
   7158.00  2.9967594E-01
   7158.33  2.9599078E-01
   7158.67  2.9297527E-01
   7159.00  2.9048928E-01
   7159.33  2.8829868E-01
   7159.67  2.8606400E-01
   7160.00  2.8358344E-01
   7160.33  2.8077327E-01
   7160.67  2.7787350E-01
   7161.00  2.7521752E-01
   7161.33  2.7334371E-01
   7161.67  2.7255107E-01
   7162.00  2.7305795E-01
   7162.33  2.7515247E-01
   7162.67  2.7863813E-01
   7163.00  2.8341790E-01
   7163.33  2.8945406E-01
   7163.67  2.9639260E-01
   7164.00  3.0404685E-01
   7164.33  3.1227173E-01
   7164.67  3.2081132E-01
   7165.00  3.2951786E-01
   7165.33  3.3824591E-01
   7165.67  3.4687186E-01
   7166.00  3.5530861E-01
   7166.33  3.6343329E-01
   7166.67  3.7121527E-01
   7167.00  3.7861776E-01
   7167.33  3.8556394E-01
   7167.67  3.9209510E-01
   7168.00  3.9821640E-01
   7168.33  4.0390129E-01
   7168.67  4.0923556E-01
   7169.00  4.1426033E-01
   7169.33  4.1899555E-01
   7169.67  4.2352010E-01
   7170.00  4.2786402E-01
   7170.33  4.3202591E-01
   7170.67  4.3602155E-01
   7171.00  4.3982327E-01
   7171.33  4.4332702E-01
   7171.67  4.4643047E-01
   7172.00  4.4896065E-01
