    FDMNES
    energy     <xanes>
   7097.00  4.0335029E-03
   7097.33  4.1113786E-03
   7097.67  4.1922353E-03
   7098.00  4.2762594E-03
   7098.33  4.3641162E-03
   7098.67  4.4556470E-03
   7099.00  4.5511055E-03
   7099.33  4.6513540E-03
   7099.67  4.7562320E-03
   7100.00  4.8660969E-03
   7100.33  4.9821006E-03
   7100.67  5.1040974E-03
   7101.00  5.2326093E-03
   7101.33  5.3692336E-03
   7101.67  5.5138756E-03
   7102.00  5.6673326E-03
   7102.33  5.8319218E-03
   7102.67  6.0076817E-03
   7103.00  6.1958966E-03
   7103.33  6.4001192E-03
   7103.67  6.6207143E-03
   7104.00  6.8598881E-03
   7104.33  7.1234779E-03
   7104.67  7.4126530E-03
   7105.00  7.7315232E-03
   7105.33  8.0905562E-03
   7105.67  8.4930259E-03
   7106.00  8.9474274E-03
   7106.33  9.4748034E-03
   7106.67  1.0084540E-02
   7107.00  1.0796821E-02
   7107.33  1.1661086E-02
   7107.67  1.2707615E-02
   7108.00  1.3994879E-02
   7108.33  1.5668544E-02
   7108.67  1.7851116E-02
   7109.00  2.0771902E-02
   7109.33  2.5043311E-02
   7109.67  3.1396068E-02
   7110.00  4.1268302E-02
   7110.33  5.8824153E-02
   7110.67  8.8334606E-02
   7111.00  1.2943609E-01
   7111.33  1.6495151E-01
   7111.67  1.8292901E-01
   7112.00  1.8389854E-01
   7112.33  1.6480952E-01
   7112.67  1.3051423E-01
   7113.00  9.4768712E-02
   7113.33  7.0558752E-02
   7113.67  5.6093959E-02
   7114.00  4.8585194E-02
   7114.33  4.5681047E-02
   7114.67  4.3315732E-02
   7115.00  3.9356039E-02
   7115.33  3.4978745E-02
   7115.67  3.2224410E-02
   7116.00  3.1023899E-02
   7116.33  3.1027912E-02
   7116.67  3.1786219E-02
   7117.00  3.3137333E-02
   7117.33  3.5030320E-02
   7117.67  3.7382226E-02
   7118.00  4.0238349E-02
   7118.33  4.3677712E-02
   7118.67  4.7353843E-02
   7119.00  5.0718654E-02
   7119.33  5.3235652E-02
   7119.67  5.5164403E-02
   7120.00  5.6812922E-02
   7120.33  5.8436051E-02
   7120.67  6.0235673E-02
   7121.00  6.2369345E-02
   7121.33  6.5070712E-02
   7121.67  6.8469544E-02
   7122.00  7.2788660E-02
   7122.33  7.8539707E-02
   7122.67  8.6014926E-02
   7123.00  9.5664007E-02
   7123.33  1.0836355E-01
   7123.67  1.2420557E-01
   7124.00  1.4343020E-01
   7124.33  1.6722268E-01
   7124.67  1.9698665E-01
   7125.00  2.3512924E-01
   7125.33  2.8525586E-01
   7125.67  3.4490359E-01
   7126.00  4.0720016E-01
   7126.33  4.5651126E-01
   7126.67  4.8452235E-01
   7127.00  4.9304102E-01
   7127.33  4.8886208E-01
   7127.67  4.8170405E-01
   7128.00  4.7736449E-01
   7128.33  4.8142853E-01
   7128.67  4.9602170E-01
   7129.00  5.2352536E-01
   7129.33  5.6933284E-01
   7129.67  6.3544597E-01
   7130.00  7.2508126E-01
   7130.33  8.4210966E-01
   7130.67  9.7597672E-01
   7131.00  1.1096442E+00
   7131.33  1.2120766E+00
   7131.67  1.2675149E+00
   7132.00  1.2739302E+00
   7132.33  1.2340811E+00
   7132.67  1.1643710E+00
   7133.00  1.0758679E+00
   7133.33  9.8160194E-01
   7133.67  8.9395961E-01
   7134.00  8.1959561E-01
   7134.33  7.6332696E-01
   7134.67  7.2147155E-01
   7135.00  6.9094363E-01
   7135.33  6.6930060E-01
   7135.67  6.5311314E-01
   7136.00  6.4105718E-01
   7136.33  6.3259597E-01
   7136.67  6.2677400E-01
   7137.00  6.2325864E-01
   7137.33  6.2195316E-01
   7137.67  6.2224899E-01
   7138.00  6.2379512E-01
   7138.33  6.2624491E-01
   7138.67  6.2904708E-01
   7139.00  6.3185224E-01
   7139.33  6.3430697E-01
   7139.67  6.3627415E-01
   7140.00  6.3772989E-01
   7140.33  6.3874647E-01
   7140.67  6.3963724E-01
   7141.00  6.4072060E-01
   7141.33  6.4251452E-01
   7141.67  6.4539692E-01
   7142.00  6.4971837E-01
   7142.33  6.5598565E-01
   7142.67  6.6409873E-01
   7143.00  6.7397436E-01
   7143.33  6.8537170E-01
   7143.67  6.9735466E-01
   7144.00  7.0906221E-01
   7144.33  7.1918477E-01
   7144.67  7.2678588E-01
   7145.00  7.3107686E-01
   7145.33  7.3098437E-01
   7145.67  7.2682813E-01
   7146.00  7.1878329E-01
   7146.33  7.0691979E-01
   7146.67  6.9235148E-01
   7147.00  6.7572890E-01
   7147.33  6.5761201E-01
   7147.67  6.3878898E-01
   7148.00  6.1968683E-01
   7148.33  6.0069307E-01
   7148.67  5.8205159E-01
   7149.00  5.6390643E-01
   7149.33  5.4643984E-01
   7149.67  5.2964206E-01
   7150.00  5.1355387E-01
   7150.33  4.9832412E-01
   7150.67  4.8390620E-01
   7151.00  4.7029986E-01
   7151.33  4.5758126E-01
   7151.67  4.4562985E-01
   7152.00  4.3442594E-01
   7152.33  4.2403255E-01
   7152.67  4.1432374E-01
   7153.00  4.0525925E-01
   7153.33  3.9685229E-01
   7153.67  3.8895696E-01
   7154.00  3.8150286E-01
   7154.33  3.7444720E-01
   7154.67  3.6766042E-01
   7155.00  3.6107848E-01
   7155.33  3.5466499E-01
   7155.67  3.4837635E-01
   7156.00  3.4222108E-01
   7156.33  3.3626884E-01
   7156.67  3.3058336E-01
   7157.00  3.2526554E-01
   7157.33  3.2051304E-01
   7157.67  3.1639192E-01
   7158.00  3.1298061E-01
   7158.33  3.1038535E-01
   7158.67  3.0841886E-01
   7159.00  3.0690397E-01
   7159.33  3.0558095E-01
   7159.67  3.0415346E-01
   7160.00  3.0247593E-01
   7160.33  3.0052390E-01
   7160.67  2.9852523E-01
   7161.00  2.9675659E-01
   7161.33  2.9565012E-01
   7161.67  2.9544436E-01
   7162.00  2.9633544E-01
   7162.33  2.9860418E-01
   7162.67  3.0211466E-01
   7163.00  3.0680234E-01
   7163.33  3.1264900E-01
   7163.67  3.1932665E-01
   7164.00  3.2664282E-01
   7164.33  3.3442180E-01
   7164.67  3.4239917E-01
   7165.00  3.5041248E-01
   7165.33  3.5828736E-01
   7165.67  3.6591379E-01
   7166.00  3.7320832E-01
   7166.33  3.8004775E-01
   7166.67  3.8643600E-01
   7167.00  3.9235394E-01
   7167.33  3.9774137E-01
   7167.67  4.0267606E-01
   7168.00  4.0718845E-01
   7168.33  4.1128172E-01
   7168.67  4.1506278E-01
   7169.00  4.1858631E-01
   7169.33  4.2188900E-01
   7169.67  4.2504836E-01
   7170.00  4.2809858E-01
   7170.33  4.3105201E-01
   7170.67  4.3392116E-01
   7171.00  4.3668714E-01
   7171.33  4.3927554E-01
   7171.67  4.4159653E-01
   7172.00  4.4350605E-01
