    FDMNES
    energy     <xanes>
   7097.00  4.9971241E-03
   7097.33  5.1146616E-03
   7097.67  5.2375340E-03
   7098.00  5.3661056E-03
   7098.33  5.5016172E-03
   7098.67  5.6438219E-03
   7099.00  5.7932184E-03
   7099.33  5.9514352E-03
   7099.67  6.1182229E-03
   7100.00  6.2942832E-03
   7100.33  6.4818115E-03
   7100.67  6.6805835E-03
   7101.00  6.8916184E-03
   7101.33  7.1179727E-03
   7101.67  7.3595077E-03
   7102.00  7.6177616E-03
   7102.33  7.8971559E-03
   7102.67  8.1977728E-03
   7103.00  8.5220420E-03
   7103.33  8.8766670E-03
   7103.67  9.2622587E-03
   7104.00  9.6828774E-03
   7104.33  1.0149297E-02
   7104.67  1.0663399E-02
   7105.00  1.1232464E-02
   7105.33  1.1875153E-02
   7105.67  1.2596554E-02
   7106.00  1.3410982E-02
   7106.33  1.4354121E-02
   7106.67  1.5439947E-02
   7107.00  1.6700375E-02
   7107.33  1.8213727E-02
   7107.67  2.0022657E-02
   7108.00  2.2212508E-02
   7108.33  2.4994531E-02
   7108.67  2.8529312E-02
   7109.00  3.3120615E-02
   7109.33  3.9565721E-02
   7109.67  4.8744423E-02
   7110.00  6.2376445E-02
   7110.33  8.5376882E-02
   7110.67  1.2288413E-01
   7111.00  1.7619844E-01
   7111.33  2.3220726E-01
   7111.67  2.7738500E-01
   7112.00  3.1006362E-01
   7112.33  3.3989160E-01
   7112.67  3.7573940E-01
   7113.00  4.0556583E-01
   7113.33  3.9517437E-01
   7113.67  3.5821663E-01
   7114.00  3.1555016E-01
   7114.33  2.6476929E-01
   7114.67  2.1422238E-01
   7115.00  1.7436359E-01
   7115.33  1.4876532E-01
   7115.67  1.3158895E-01
   7116.00  1.1885468E-01
   7116.33  1.0858961E-01
   7116.67  1.0059085E-01
   7117.00  9.5263946E-02
   7117.33  9.2895361E-02
   7117.67  9.2822346E-02
   7118.00  9.4826776E-02
   7118.33  9.9103768E-02
   7118.67  1.0518578E-01
   7119.00  1.1188087E-01
   7119.33  1.1609038E-01
   7119.67  1.1694731E-01
   7120.00  1.1590997E-01
   7120.33  1.1559665E-01
   7120.67  1.1816926E-01
   7121.00  1.2448097E-01
   7121.33  1.3538802E-01
   7121.67  1.5071966E-01
   7122.00  1.7056405E-01
   7122.33  1.9554827E-01
   7122.67  2.2519749E-01
   7123.00  2.5820476E-01
   7123.33  2.9048140E-01
   7123.67  3.1758576E-01
   7124.00  3.3777458E-01
   7124.33  3.5182004E-01
   7124.67  3.6456936E-01
   7125.00  3.7961700E-01
   7125.33  3.9935194E-01
   7125.67  4.2256519E-01
   7126.00  4.4772292E-01
   7126.33  4.7345639E-01
   7126.67  4.9951649E-01
   7127.00  5.2592573E-01
   7127.33  5.5071230E-01
   7127.67  5.7109813E-01
   7128.00  5.8575747E-01
   7128.33  5.9464869E-01
   7128.67  6.0005643E-01
   7129.00  6.0387936E-01
   7129.33  6.0969887E-01
   7129.67  6.2091001E-01
   7130.00  6.3934403E-01
   7130.33  6.6623286E-01
   7130.67  6.9957926E-01
   7131.00  7.3721030E-01
   7131.33  7.7442663E-01
   7131.67  8.0622306E-01
   7132.00  8.3120097E-01
   7132.33  8.5179009E-01
   7132.67  8.7187790E-01
   7133.00  8.9088804E-01
   7133.33  9.0454041E-01
   7133.67  9.1189776E-01
   7134.00  9.1622858E-01
   7134.33  9.2480852E-01
   7134.67  9.3748741E-01
   7135.00  9.4667360E-01
   7135.33  9.4418467E-01
   7135.67  9.3174107E-01
   7136.00  9.1229179E-01
   7136.33  8.8840999E-01
   7136.67  8.6258007E-01
   7137.00  8.3591391E-01
   7137.33  8.0929136E-01
   7137.67  7.8320226E-01
   7138.00  7.5783824E-01
   7138.33  7.3343224E-01
   7138.67  7.1005164E-01
   7139.00  6.8790483E-01
   7139.33  6.6741044E-01
   7139.67  6.4852323E-01
   7140.00  6.3124764E-01
   7140.33  6.1566363E-01
   7140.67  6.0140149E-01
   7141.00  5.8827210E-01
   7141.33  5.7614844E-01
   7141.67  5.6468256E-01
   7142.00  5.5369252E-01
   7142.33  5.4304300E-01
   7142.67  5.3255949E-01
   7143.00  5.2216259E-01
   7143.33  5.1182738E-01
   7143.67  5.0158488E-01
   7144.00  4.9151911E-01
   7144.33  4.8181286E-01
   7144.67  4.7259528E-01
   7145.00  4.6401285E-01
   7145.33  4.5631406E-01
   7145.67  4.4951208E-01
   7146.00  4.4366186E-01
   7146.33  4.3889024E-01
   7146.67  4.3502031E-01
   7147.00  4.3196945E-01
   7147.33  4.2971019E-01
   7147.67  4.2801780E-01
   7148.00  4.2676162E-01
   7148.33  4.2582344E-01
   7148.67  4.2503041E-01
   7149.00  4.2428907E-01
   7149.33  4.2352581E-01
   7149.67  4.2271901E-01
   7150.00  4.2188456E-01
   7150.33  4.2107847E-01
   7150.67  4.2037233E-01
   7151.00  4.1983269E-01
   7151.33  4.1954974E-01
   7151.67  4.1952274E-01
   7152.00  4.1973942E-01
   7152.33  4.2016314E-01
   7152.67  4.2066615E-01
   7153.00  4.2113025E-01
   7153.33  4.2137573E-01
   7153.67  4.2126818E-01
   7154.00  4.2067741E-01
   7154.33  4.1939318E-01
   7154.67  4.1739318E-01
   7155.00  4.1462959E-01
   7155.33  4.1100249E-01
   7155.67  4.0666216E-01
   7156.00  4.0169989E-01
   7156.33  3.9620849E-01
   7156.67  3.9043499E-01
   7157.00  3.8455732E-01
   7157.33  3.7879689E-01
   7157.67  3.7333401E-01
   7158.00  3.6831094E-01
   7158.33  3.6392612E-01
   7158.67  3.6019058E-01
   7159.00  3.5713885E-01
   7159.33  3.5485892E-01
   7159.67  3.5323455E-01
   7160.00  3.5222334E-01
   7160.33  3.5183409E-01
   7160.67  3.5193095E-01
   7161.00  3.5245707E-01
   7161.33  3.5339679E-01
   7161.67  3.5464815E-01
   7162.00  3.5616679E-01
   7162.33  3.5793104E-01
   7162.67  3.5986553E-01
   7163.00  3.6192764E-01
   7163.33  3.6407683E-01
   7163.67  3.6626207E-01
   7164.00  3.6846040E-01
   7164.33  3.7066045E-01
   7164.67  3.7286609E-01
   7165.00  3.7509127E-01
   7165.33  3.7736489E-01
   7165.67  3.7970673E-01
   7166.00  3.8213615E-01
   7166.33  3.8468412E-01
   7166.67  3.8734839E-01
   7167.00  3.9013240E-01
   7167.33  3.9304915E-01
   7167.67  3.9607723E-01
   7168.00  3.9920769E-01
   7168.33  4.0243850E-01
   7168.67  4.0574236E-01
   7169.00  4.0910306E-01
   7169.33  4.1250361E-01
   7169.67  4.1591460E-01
   7170.00  4.1931116E-01
   7170.33  4.2265335E-01
   7170.67  4.2590547E-01
   7171.00  4.2902141E-01
   7171.33  4.3189826E-01
   7171.67  4.3444018E-01
   7172.00  4.3649880E-01
