    FDMNES
    energy     <xanes>
   7097.00  4.9408002E-03
   7097.33  5.0607632E-03
   7097.67  5.1863480E-03
   7098.00  5.3179507E-03
   7098.33  5.4568992E-03
   7098.67  5.6029498E-03
   7099.00  5.7566491E-03
   7099.33  5.9197545E-03
   7099.67  6.0920260E-03
   7100.00  6.2742396E-03
   7100.33  6.4687873E-03
   7100.67  6.6754670E-03
   7101.00  6.8954171E-03
   7101.33  7.1320037E-03
   7101.67  7.3851375E-03
   7102.00  7.6565556E-03
   7102.33  7.9511873E-03
   7102.67  8.2692219E-03
   7103.00  8.6134385E-03
   7103.33  8.9914142E-03
   7103.67  9.4039975E-03
   7104.00  9.8558986E-03
   7104.33  1.0359489E-02
   7104.67  1.0917200E-02
   7105.00  1.1537614E-02
   7105.33  1.2242551E-02
   7105.67  1.3038454E-02
   7106.00  1.3942516E-02
   7106.33  1.4997336E-02
   7106.67  1.6220600E-02
   7107.00  1.7651453E-02
   7107.33  1.9385664E-02
   7107.67  2.1477706E-02
   7108.00  2.4034782E-02
   7108.33  2.7322327E-02
   7108.67  3.1548611E-02
   7109.00  3.7105271E-02
   7109.33  4.5023732E-02
   7109.67  5.6466143E-02
   7110.00  7.3706033E-02
   7110.33  1.0328426E-01
   7110.67  1.5223131E-01
   7111.00  2.2210209E-01
   7111.33  2.8861991E-01
   7111.67  3.3862156E-01
   7112.00  3.9066379E-01
   7112.33  4.4337365E-01
   7112.67  4.6574196E-01
   7113.00  4.2543302E-01
   7113.33  3.2976054E-01
   7113.67  2.4354285E-01
   7114.00  1.8480015E-01
   7114.33  1.5502573E-01
   7114.67  1.4617261E-01
   7115.00  1.5467692E-01
   7115.33  1.6821823E-01
   7115.67  1.6240855E-01
   7116.00  1.3742243E-01
   7116.33  1.1325299E-01
   7116.67  9.7326681E-02
   7117.00  8.8614985E-02
   7117.33  8.5430889E-02
   7117.67  8.5118620E-02
   7118.00  8.6152497E-02
   7118.33  8.7549260E-02
   7118.67  8.9539890E-02
   7119.00  9.2700724E-02
   7119.33  9.7136770E-02
   7119.67  1.0191892E-01
   7120.00  1.0617397E-01
   7120.33  1.0974555E-01
   7120.67  1.1448486E-01
   7121.00  1.2201300E-01
   7121.33  1.3335606E-01
   7121.67  1.4788909E-01
   7122.00  1.6565707E-01
   7122.33  1.8763032E-01
   7122.67  2.1348414E-01
   7123.00  2.4259553E-01
   7123.33  2.7458640E-01
   7123.67  3.0868364E-01
   7124.00  3.4330981E-01
   7124.33  3.7416558E-01
   7124.67  3.9694953E-01
   7125.00  4.0930026E-01
   7125.33  4.1208602E-01
   7125.67  4.1181912E-01
   7126.00  4.1334402E-01
   7126.33  4.2149903E-01
   7126.67  4.3717859E-01
   7127.00  4.5969562E-01
   7127.33  4.8717417E-01
   7127.67  5.1692200E-01
   7128.00  5.4859137E-01
   7128.33  5.8216201E-01
   7128.67  6.1499924E-01
   7129.00  6.4467827E-01
   7129.33  6.7167770E-01
   7129.67  6.9941838E-01
   7130.00  7.2837421E-01
   7130.33  7.5510037E-01
   7130.67  7.7571126E-01
   7131.00  7.8836861E-01
   7131.33  7.9230241E-01
   7131.67  7.8994877E-01
   7132.00  7.8289817E-01
   7132.33  7.7285257E-01
   7132.67  7.6227493E-01
   7133.00  7.5295029E-01
   7133.33  7.4673229E-01
   7133.67  7.4348645E-01
   7134.00  7.4255548E-01
   7134.33  7.4339020E-01
   7134.67  7.4533507E-01
   7135.00  7.4788475E-01
   7135.33  7.5003516E-01
   7135.67  7.5082203E-01
   7136.00  7.4982233E-01
   7136.33  7.4701697E-01
   7136.67  7.4315604E-01
   7137.00  7.3870640E-01
   7137.33  7.3401159E-01
   7137.67  7.2920682E-01
   7138.00  7.2415166E-01
   7138.33  7.1843307E-01
   7138.67  7.1183960E-01
   7139.00  7.0431641E-01
   7139.33  6.9579376E-01
   7139.67  6.8620047E-01
   7140.00  6.7503643E-01
   7140.33  6.6127570E-01
   7140.67  6.4495923E-01
   7141.00  6.2670403E-01
   7141.33  6.0814717E-01
   7141.67  5.9141036E-01
   7142.00  5.7800281E-01
   7142.33  5.6938881E-01
   7142.67  5.6493923E-01
   7143.00  5.6382899E-01
   7143.33  5.6467948E-01
   7143.67  5.6535349E-01
   7144.00  5.6431611E-01
   7144.33  5.6000130E-01
   7144.67  5.5249202E-01
   7145.00  5.4226877E-01
   7145.33  5.3024996E-01
   7145.67  5.1797893E-01
   7146.00  5.0648003E-01
   7146.33  4.9680084E-01
   7146.67  4.8920980E-01
   7147.00  4.8384378E-01
   7147.33  4.8089030E-01
   7147.67  4.7983213E-01
   7148.00  4.8038632E-01
   7148.33  4.8234502E-01
   7148.67  4.8517805E-01
   7149.00  4.8857856E-01
   7149.33  4.9226421E-01
   7149.67  4.9595181E-01
   7150.00  4.9947996E-01
   7150.33  5.0268394E-01
   7150.67  5.0552394E-01
   7151.00  5.0796693E-01
   7151.33  5.0995203E-01
   7151.67  5.1154694E-01
   7152.00  5.1278753E-01
   7152.33  5.1370388E-01
   7152.67  5.1441669E-01
   7153.00  5.1500228E-01
   7153.33  5.1553050E-01
   7153.67  5.1605345E-01
   7154.00  5.1657770E-01
   7154.33  5.1706930E-01
   7154.67  5.1746876E-01
   7155.00  5.1770504E-01
   7155.33  5.1765701E-01
   7155.67  5.1727234E-01
   7156.00  5.1648939E-01
   7156.33  5.1519290E-01
   7156.67  5.1339470E-01
   7157.00  5.1106420E-01
   7157.33  5.0810247E-01
   7157.67  5.0455717E-01
   7158.00  5.0041482E-01
   7158.33  4.9559457E-01
   7158.67  4.9018430E-01
   7159.00  4.8421551E-01
   7159.33  4.7769285E-01
   7159.67  4.7077878E-01
   7160.00  4.6358513E-01
   7160.33  4.5624328E-01
   7160.67  4.4892317E-01
   7161.00  4.4174867E-01
   7161.33  4.3487631E-01
   7161.67  4.2836282E-01
   7162.00  4.2225487E-01
   7162.33  4.1662427E-01
   7162.67  4.1140551E-01
   7163.00  4.0656945E-01
   7163.33  4.0210837E-01
   7163.67  3.9792107E-01
   7164.00  3.9395429E-01
   7164.33  3.9017168E-01
   7164.67  3.8650996E-01
   7165.00  3.8294846E-01
   7165.33  3.7949574E-01
   7165.67  3.7615626E-01
   7166.00  3.7295700E-01
   7166.33  3.6996078E-01
   7166.67  3.6718705E-01
   7167.00  3.6466757E-01
   7167.33  3.6246641E-01
   7167.67  3.6056747E-01
   7168.00  3.5898023E-01
   7168.33  3.5774790E-01
   7168.67  3.5682913E-01
   7169.00  3.5621943E-01
   7169.33  3.5594842E-01
   7169.67  3.5596673E-01
   7170.00  3.5626016E-01
   7170.33  3.5683718E-01
   7170.67  3.5763356E-01
   7171.00  3.5860938E-01
   7171.33  3.5970684E-01
   7171.67  3.6079307E-01
   7172.00  3.6171697E-01
