    FDMNES
    energy     <xanes>
   7097.00  4.9105661E-03
   7097.33  5.0291936E-03
   7097.67  5.1533521E-03
   7098.00  5.2834299E-03
   7098.33  5.4207312E-03
   7098.67  5.5650144E-03
   7099.00  5.7168152E-03
   7099.33  5.8778582E-03
   7099.67  6.0479052E-03
   7100.00  6.2277160E-03
   7100.33  6.4196366E-03
   7100.67  6.6234654E-03
   7101.00  6.8403167E-03
   7101.33  7.0734896E-03
   7101.67  7.3228921E-03
   7102.00  7.5902245E-03
   7102.33  7.8803147E-03
   7102.67  8.1933435E-03
   7103.00  8.5320298E-03
   7103.33  8.9037923E-03
   7103.67  9.3094562E-03
   7104.00  9.7536302E-03
   7104.33  1.0248425E-02
   7104.67  1.0796213E-02
   7105.00  1.1405397E-02
   7105.33  1.2097335E-02
   7105.67  1.2878334E-02
   7106.00  1.3765231E-02
   7106.33  1.4799742E-02
   7106.67  1.5999209E-02
   7107.00  1.7402001E-02
   7107.33  1.9101998E-02
   7107.67  2.1152700E-02
   7108.00  2.3659356E-02
   7108.33  2.6882648E-02
   7108.67  3.1027613E-02
   7109.00  3.6479843E-02
   7109.33  4.4255676E-02
   7109.67  5.5503580E-02
   7110.00  7.2470497E-02
   7110.33  1.0160064E-01
   7110.67  1.4958853E-01
   7111.00  2.1723904E-01
   7111.33  2.8282049E-01
   7111.67  3.3463161E-01
   7112.00  3.8581715E-01
   7112.33  4.3349614E-01
   7112.67  4.4810972E-01
   7113.00  4.0428446E-01
   7113.33  3.1140929E-01
   7113.67  2.3036907E-01
   7114.00  1.7735631E-01
   7114.33  1.5153234E-01
   7114.67  1.4476868E-01
   7115.00  1.5419234E-01
   7115.33  1.6940837E-01
   7115.67  1.6658517E-01
   7116.00  1.4266936E-01
   7116.33  1.1683746E-01
   7116.67  9.8744240E-02
   7117.00  8.8119261E-02
   7117.33  8.3621689E-02
   7117.67  8.2654078E-02
   7118.00  8.3719225E-02
   7118.33  8.5853215E-02
   7118.67  8.9093653E-02
   7119.00  9.3782529E-02
   7119.33  9.9437355E-02
   7119.67  1.0462923E-01
   7120.00  1.0853433E-01
   7120.33  1.1177413E-01
   7120.67  1.1663937E-01
   7121.00  1.2467736E-01
   7121.33  1.3673775E-01
   7121.67  1.5200641E-01
   7122.00  1.7053563E-01
   7122.33  1.9323601E-01
   7122.67  2.1923284E-01
   7123.00  2.4701000E-01
   7123.33  2.7547591E-01
   7123.67  3.0536210E-01
   7124.00  3.3661090E-01
   7124.33  3.6625135E-01
   7124.67  3.9046911E-01
   7125.00  4.0679825E-01
   7125.33  4.1479729E-01
   7125.67  4.1911171E-01
   7126.00  4.2370326E-01
   7126.33  4.3294451E-01
   7126.67  4.4832506E-01
   7127.00  4.6991290E-01
   7127.33  4.9699353E-01
   7127.67  5.2721933E-01
   7128.00  5.5944977E-01
   7128.33  5.9219569E-01
   7128.67  6.2287745E-01
   7129.00  6.5024666E-01
   7129.33  6.7689436E-01
   7129.67  7.0687581E-01
   7130.00  7.3960197E-01
   7130.33  7.6927230E-01
   7130.67  7.9070562E-01
   7131.00  8.0186679E-01
   7131.33  8.0181900E-01
   7131.67  7.9359502E-01
   7132.00  7.7970889E-01
   7132.33  7.6364328E-01
   7132.67  7.4890801E-01
   7133.00  7.3725700E-01
   7133.33  7.3013236E-01
   7133.67  7.2712104E-01
   7134.00  7.2770177E-01
   7134.33  7.3076988E-01
   7134.67  7.3416128E-01
   7135.00  7.3657029E-01
   7135.33  7.3743784E-01
   7135.67  7.3749893E-01
   7136.00  7.3728847E-01
   7136.33  7.3698253E-01
   7136.67  7.3633617E-01
   7137.00  7.3495258E-01
   7137.33  7.3226325E-01
   7137.67  7.2825799E-01
   7138.00  7.2308582E-01
   7138.33  7.1698470E-01
   7138.67  7.1031643E-01
   7139.00  7.0311446E-01
   7139.33  6.9507841E-01
   7139.67  6.8584705E-01
   7140.00  6.7490292E-01
   7140.33  6.6150073E-01
   7140.67  6.4604726E-01
   7141.00  6.2936804E-01
   7141.33  6.1311465E-01
   7141.67  5.9895144E-01
   7142.00  5.8794482E-01
   7142.33  5.8099171E-01
   7142.67  5.7721609E-01
   7143.00  5.7569514E-01
   7143.33  5.7505402E-01
   7143.67  5.7360374E-01
   7144.00  5.7015754E-01
   7144.33  5.6350753E-01
   7144.67  5.5394445E-01
   7145.00  5.4203554E-01
   7145.33  5.2878764E-01
   7145.67  5.1564367E-01
   7146.00  5.0352549E-01
   7146.33  4.9337549E-01
   7146.67  4.8531054E-01
   7147.00  4.7937717E-01
   7147.33  4.7568790E-01
   7147.67  4.7373954E-01
   7148.00  4.7328620E-01
   7148.33  4.7419614E-01
   7148.67  4.7604817E-01
   7149.00  4.7862662E-01
   7149.33  4.8176618E-01
   7149.67  4.8520011E-01
   7150.00  4.8876501E-01
   7150.33  4.9226829E-01
   7150.67  4.9553347E-01
   7151.00  4.9841621E-01
   7151.33  5.0073696E-01
   7151.67  5.0254451E-01
   7152.00  5.0393538E-01
   7152.33  5.0510771E-01
   7152.67  5.0635526E-01
   7153.00  5.0787336E-01
   7153.33  5.0982486E-01
   7153.67  5.1212411E-01
   7154.00  5.1462758E-01
   7154.33  5.1708059E-01
   7154.67  5.1921862E-01
   7155.00  5.2084277E-01
   7155.33  5.2171671E-01
   7155.67  5.2186930E-01
   7156.00  5.2131963E-01
   7156.33  5.2005301E-01
   7156.67  5.1822270E-01
   7157.00  5.1587626E-01
   7157.33  5.1297577E-01
   7157.67  5.0957189E-01
   7158.00  5.0563505E-01
   7158.33  5.0105001E-01
   7158.67  4.9585501E-01
   7159.00  4.9004251E-01
   7159.33  4.8356683E-01
   7159.67  4.7657585E-01
   7160.00  4.6916700E-01
   7160.33  4.6144758E-01
   7160.67  4.5361140E-01
   7161.00  4.4579580E-01
   7161.33  4.3816630E-01
   7161.67  4.3081846E-01
   7162.00  4.2382392E-01
   7162.33  4.1727898E-01
   7162.67  4.1114504E-01
   7163.00  4.0541138E-01
   7163.33  4.0009549E-01
   7163.67  3.9511177E-01
   7164.00  3.9042505E-01
   7164.33  3.8603249E-01
   7164.67  3.8187541E-01
   7165.00  3.7794117E-01
   7165.33  3.7425336E-01
   7165.67  3.7079089E-01
   7166.00  3.6756614E-01
   7166.33  3.6463160E-01
   7166.67  3.6197796E-01
   7167.00  3.5962398E-01
   7167.33  3.5762787E-01
   7167.67  3.5596306E-01
   7168.00  3.5463541E-01
   7168.33  3.5368626E-01
   7168.67  3.5306566E-01
   7169.00  3.5276254E-01
   7169.33  3.5279767E-01
   7169.67  3.5311309E-01
   7170.00  3.5368847E-01
   7170.33  3.5452519E-01
   7170.67  3.5555971E-01
   7171.00  3.5675218E-01
   7171.33  3.5804213E-01
   7171.67  3.5929599E-01
   7172.00  3.6035513E-01
