    FDMNES
    energy     <xanes>
   7097.00  4.9156362E-03
   7097.33  5.0344493E-03
   7097.67  5.1588032E-03
   7098.00  5.2890869E-03
   7098.33  5.4266069E-03
   7098.67  5.5711211E-03
   7099.00  5.7231660E-03
   7099.33  5.8844694E-03
   7099.67  6.0547926E-03
   7100.00  6.2348965E-03
   7100.33  6.4271312E-03
   7100.67  6.6312945E-03
   7101.00  6.8485026E-03
   7101.33  7.0820598E-03
   7101.67  7.3318739E-03
   7102.00  7.5996473E-03
   7102.33  7.8902158E-03
   7102.67  8.2037593E-03
   7103.00  8.5430006E-03
   7103.33  8.9153686E-03
   7103.67  9.3216881E-03
   7104.00  9.7665726E-03
   7104.33  1.0262147E-02
   7104.67  1.0810783E-02
   7105.00  1.1420888E-02
   7105.33  1.2113838E-02
   7105.67  1.2895935E-02
   7106.00  1.3784017E-02
   7106.33  1.4819808E-02
   7106.67  1.6020622E-02
   7107.00  1.7424793E-02
   7107.33  1.9126116E-02
   7107.67  2.1177929E-02
   7108.00  2.3685211E-02
   7108.33  2.6907885E-02
   7108.67  3.1049850E-02
   7109.00  3.6494514E-02
   7109.33  4.4251540E-02
   7109.67  5.5458073E-02
   7110.00  7.2337488E-02
   7110.33  1.0126632E-01
   7110.67  1.4893621E-01
   7111.00  2.1653903E-01
   7111.33  2.8322665E-01
   7111.67  3.3681529E-01
   7112.00  3.9036062E-01
   7112.33  4.3900240E-01
   7112.67  4.5237742E-01
   7113.00  4.0387624E-01
   7113.33  3.0818422E-01
   7113.67  2.2767932E-01
   7114.00  1.7597111E-01
   7114.33  1.5121186E-01
   7114.67  1.4533023E-01
   7115.00  1.5535369E-01
   7115.33  1.6967073E-01
   7115.67  1.6472558E-01
   7116.00  1.3999723E-01
   7116.33  1.1482921E-01
   7116.67  9.7502342E-02
   7117.00  8.7491482E-02
   7117.33  8.3483368E-02
   7117.67  8.2945454E-02
   7118.00  8.4340876E-02
   7118.33  8.6603224E-02
   7118.67  8.9814567E-02
   7119.00  9.4379183E-02
   7119.33  9.9862396E-02
   7119.67  1.0484619E-01
   7120.00  1.0844418E-01
   7120.33  1.1143681E-01
   7120.67  1.1639645E-01
   7121.00  1.2488087E-01
   7121.33  1.3759991E-01
   7121.67  1.5338199E-01
   7122.00  1.7211137E-01
   7122.33  1.9489928E-01
   7122.67  2.2115086E-01
   7123.00  2.4940471E-01
   7123.33  2.7826660E-01
   7123.67  3.0806986E-01
   7124.00  3.3867539E-01
   7124.33  3.6740336E-01
   7124.67  3.9102460E-01
   7125.00  4.0744489E-01
   7125.33  4.1631681E-01
   7125.67  4.2180122E-01
   7126.00  4.2753468E-01
   7126.33  4.3770019E-01
   7126.67  4.5378229E-01
   7127.00  4.7582115E-01
   7127.33  5.0298328E-01
   7127.67  5.3284374E-01
   7128.00  5.6408228E-01
   7128.33  5.9494101E-01
   7128.67  6.2332694E-01
   7129.00  6.4895055E-01
   7129.33  6.7566579E-01
   7129.67  7.0738374E-01
   7130.00  7.4282667E-01
   7130.33  7.7507962E-01
   7130.67  7.9802244E-01
   7131.00  8.0921424E-01
   7131.33  8.0767869E-01
   7131.67  7.9722477E-01
   7132.00  7.8100160E-01
   7132.33  7.6308524E-01
   7132.67  7.4706946E-01
   7133.00  7.3448283E-01
   7133.33  7.2639114E-01
   7133.67  7.2240236E-01
   7134.00  7.2236895E-01
   7134.33  7.2567366E-01
   7134.67  7.3001329E-01
   7135.00  7.3367065E-01
   7135.33  7.3548766E-01
   7135.67  7.3598272E-01
   7136.00  7.3580651E-01
   7136.33  7.3545088E-01
   7136.67  7.3495641E-01
   7137.00  7.3399509E-01
   7137.33  7.3190062E-01
   7137.67  7.2844550E-01
   7138.00  7.2366655E-01
   7138.33  7.1779497E-01
   7138.67  7.1133698E-01
   7139.00  7.0443531E-01
   7139.33  6.9682549E-01
   7139.67  6.8801858E-01
   7140.00  6.7734753E-01
   7140.33  6.6390217E-01
   7140.67  6.4810206E-01
   7141.00  6.3082602E-01
   7141.33  6.1379539E-01
   7141.67  5.9877424E-01
   7142.00  5.8688596E-01
   7142.33  5.7909468E-01
   7142.67  5.7457925E-01
   7143.00  5.7246560E-01
   7143.33  5.7146323E-01
   7143.67  5.6991340E-01
   7144.00  5.6664925E-01
   7144.33  5.6043379E-01
   7144.67  5.5137777E-01
   7145.00  5.3989279E-01
   7145.33  5.2684506E-01
   7145.67  5.1370322E-01
   7146.00  5.0145793E-01
   7146.33  4.9114211E-01
   7146.67  4.8294184E-01
   7147.00  4.7692660E-01
   7147.33  4.7321694E-01
   7147.67  4.7129220E-01
   7148.00  4.7089614E-01
   7148.33  4.7189167E-01
   7148.67  4.7385000E-01
   7149.00  4.7655374E-01
   7149.33  4.7984020E-01
   7149.67  4.8344012E-01
   7150.00  4.8718726E-01
   7150.33  4.9088186E-01
   7150.67  4.9433408E-01
   7151.00  4.9738920E-01
   7151.33  4.9985951E-01
   7151.67  5.0180085E-01
   7152.00  5.0331848E-01
   7152.33  5.0461591E-01
   7152.67  5.0597942E-01
   7153.00  5.0758797E-01
   7153.33  5.0957868E-01
   7153.67  5.1186342E-01
   7154.00  5.1430770E-01
   7154.33  5.1668289E-01
   7154.67  5.1876341E-01
   7155.00  5.2037788E-01
   7155.33  5.2131349E-01
   7155.67  5.2158345E-01
   7156.00  5.2118339E-01
   7156.33  5.2005904E-01
   7156.67  5.1832451E-01
   7157.00  5.1599993E-01
   7157.33  5.1301810E-01
   7157.67  5.0944076E-01
   7158.00  5.0525087E-01
   7158.33  5.0035186E-01
   7158.67  4.9481994E-01
   7159.00  4.8867381E-01
   7159.33  4.8189561E-01
   7159.67  4.7464407E-01
   7160.00  4.6702188E-01
   7160.33  4.5914013E-01
   7160.67  4.5117899E-01
   7161.00  4.4326764E-01
   7161.33  4.3556612E-01
   7161.67  4.2816310E-01
   7162.00  4.2112980E-01
   7162.33  4.1456745E-01
   7162.67  4.0843948E-01
   7163.00  4.0273933E-01
   7163.33  3.9749190E-01
   7163.67  3.9260898E-01
   7164.00  3.8805429E-01
   7164.33  3.8382482E-01
   7164.67  3.7985325E-01
   7165.00  3.7612160E-01
   7165.33  3.7264772E-01
   7165.67  3.6940195E-01
   7166.00  3.6639065E-01
   7166.33  3.6365869E-01
   7166.67  3.6119244E-01
   7167.00  3.5900710E-01
   7167.33  3.5715580E-01
   7167.67  3.5561389E-01
   7168.00  3.5438775E-01
   7168.33  3.5351814E-01
   7168.67  3.5296044E-01
   7169.00  3.5270649E-01
   7169.33  3.5277929E-01
   7169.67  3.5312541E-01
   7170.00  3.5372690E-01
   7170.33  3.5458713E-01
   7170.67  3.5564449E-01
   7171.00  3.5685991E-01
   7171.33  3.5817300E-01
   7171.67  3.5944905E-01
   7172.00  3.6052756E-01
