    FDMNES
    energy     <xanes>
   7097.00  4.7172994E-03
   7097.33  4.8184550E-03
   7097.67  4.9238109E-03
   7098.00  5.0336304E-03
   7098.33  5.1488498E-03
   7098.67  5.2692414E-03
   7099.00  5.3951562E-03
   7099.33  5.5277942E-03
   7099.67  5.6669134E-03
   7100.00  5.8129944E-03
   7100.33  5.9676108E-03
   7100.67  6.1305183E-03
   7101.00  6.3023941E-03
   7101.33  6.4853596E-03
   7101.67  6.6791973E-03
   7102.00  6.8848934E-03
   7102.33  7.1054075E-03
   7102.67  7.3406123E-03
   7103.00  7.5920070E-03
   7103.33  7.8638954E-03
   7103.67  8.1563893E-03
   7104.00  8.4718890E-03
   7104.33  8.8169956E-03
   7104.67  9.1924152E-03
   7105.00  9.6022593E-03
   7105.33  1.0057385E-02
   7105.67  1.0560016E-02
   7106.00  1.1117861E-02
   7106.33  1.1750575E-02
   7106.67  1.2464595E-02
   7107.00  1.3276344E-02
   7107.33  1.4226723E-02
   7107.67  1.5335803E-02
   7108.00  1.6645955E-02
   7108.33  1.8262951E-02
   7108.67  2.0263731E-02
   7109.00  2.2797165E-02
   7109.33  2.6256961E-02
   7109.67  3.1078603E-02
   7110.00  3.8125392E-02
   7110.33  4.9920401E-02
   7110.67  6.9359805E-02
   7111.00  9.7042183E-02
   7111.33  1.1670528E-01
   7111.67  1.1947514E-01
   7112.00  1.1975532E-01
   7112.33  1.3237587E-01
   7112.67  1.5687233E-01
   7113.00  1.9170689E-01
   7113.33  2.2859777E-01
   7113.67  2.5577634E-01
   7114.00  2.6790661E-01
   7114.33  2.8262462E-01
   7114.67  3.1328946E-01
   7115.00  3.5386394E-01
   7115.33  3.6692121E-01
   7115.67  3.1663645E-01
   7116.00  2.4166793E-01
   7116.33  1.9390188E-01
   7116.67  1.7615493E-01
   7117.00  1.8394650E-01
   7117.33  2.2044664E-01
   7117.67  2.8431649E-01
   7118.00  3.6444644E-01
   7118.33  4.1524364E-01
   7118.67  4.0942282E-01
   7119.00  3.5946294E-01
   7119.33  2.9703195E-01
   7119.67  2.4509481E-01
   7120.00  2.0772082E-01
   7120.33  1.8352657E-01
   7120.67  1.6712214E-01
   7121.00  1.5600503E-01
   7121.33  1.4915976E-01
   7121.67  1.4605299E-01
   7122.00  1.4647081E-01
   7122.33  1.4918553E-01
   7122.67  1.5122035E-01
   7123.00  1.5044391E-01
   7123.33  1.4621470E-01
   7123.67  1.4087212E-01
   7124.00  1.3643581E-01
   7124.33  1.3451064E-01
   7124.67  1.3499901E-01
   7125.00  1.3772613E-01
   7125.33  1.4283349E-01
   7125.67  1.5009027E-01
   7126.00  1.5956187E-01
   7126.33  1.7156460E-01
   7126.67  1.8587070E-01
   7127.00  2.0267408E-01
   7127.33  2.2279939E-01
   7127.67  2.4619317E-01
   7128.00  2.7265488E-01
   7128.33  3.0179688E-01
   7128.67  3.3230849E-01
   7129.00  3.6280458E-01
   7129.33  3.9043181E-01
   7129.67  4.1256912E-01
   7130.00  4.2773330E-01
   7130.33  4.3636041E-01
   7130.67  4.4315480E-01
   7131.00  4.5212265E-01
   7131.33  4.6744609E-01
   7131.67  4.9007380E-01
   7132.00  5.2041452E-01
   7132.33  5.5936605E-01
   7132.67  6.0552467E-01
   7133.00  6.5816356E-01
   7133.33  7.1643520E-01
   7133.67  7.7703979E-01
   7134.00  8.3627012E-01
   7134.33  8.8745906E-01
   7134.67  9.2574959E-01
   7135.00  9.4806357E-01
   7135.33  9.5240470E-01
   7135.67  9.4425465E-01
   7136.00  9.2807711E-01
   7136.33  9.0863313E-01
   7136.67  8.9002144E-01
   7137.00  8.7381832E-01
   7137.33  8.6023519E-01
   7137.67  8.4733300E-01
   7138.00  8.3311344E-01
   7138.33  8.1518322E-01
   7138.67  7.9322289E-01
   7139.00  7.6780067E-01
   7139.33  7.4025514E-01
   7139.67  7.1258333E-01
   7140.00  6.8597886E-01
   7140.33  6.6158646E-01
   7140.67  6.3972745E-01
   7141.00  6.2079128E-01
   7141.33  6.0555393E-01
   7141.67  5.9377756E-01
   7142.00  5.8540651E-01
   7142.33  5.8055109E-01
   7142.67  5.7837982E-01
   7143.00  5.7844891E-01
   7143.33  5.8044235E-01
   7143.67  5.8360044E-01
   7144.00  5.8741856E-01
   7144.33  5.9125569E-01
   7144.67  5.9443331E-01
   7145.00  5.9639642E-01
   7145.33  5.9639839E-01
   7145.67  5.9434336E-01
   7146.00  5.9017499E-01
   7146.33  5.8382622E-01
   7146.67  5.7591498E-01
   7147.00  5.6685860E-01
   7147.33  5.5710037E-01
   7147.67  5.4721862E-01
   7148.00  5.3759638E-01
   7148.33  5.2868580E-01
   7148.67  5.2069319E-01
   7149.00  5.1379096E-01
   7149.33  5.0824137E-01
   7149.67  5.0390975E-01
   7150.00  5.0074176E-01
   7150.33  4.9875511E-01
   7150.67  4.9768625E-01
   7151.00  4.9741800E-01
   7151.33  4.9790471E-01
   7151.67  4.9896978E-01
   7152.00  5.0057396E-01
   7152.33  5.0277868E-01
   7152.67  5.0554195E-01
   7153.00  5.0889732E-01
   7153.33  5.1296265E-01
   7153.67  5.1768198E-01
   7154.00  5.2304917E-01
   7154.33  5.2908811E-01
   7154.67  5.3561604E-01
   7155.00  5.4248843E-01
   7155.33  5.4949446E-01
   7155.67  5.5636262E-01
   7156.00  5.6287169E-01
   7156.33  5.6871772E-01
   7156.67  5.7380403E-01
   7157.00  5.7804666E-01
   7157.33  5.8131466E-01
   7157.67  5.8376378E-01
   7158.00  5.8547631E-01
   7158.33  5.8650078E-01
   7158.67  5.8705056E-01
   7159.00  5.8724019E-01
   7159.33  5.8716052E-01
   7159.67  5.8694290E-01
   7160.00  5.8665673E-01
   7160.33  5.8636013E-01
   7160.67  5.8609063E-01
   7161.00  5.8586254E-01
   7161.33  5.8567977E-01
   7161.67  5.8551912E-01
   7162.00  5.8535322E-01
   7162.33  5.8513303E-01
   7162.67  5.8481321E-01
   7163.00  5.8434631E-01
   7163.33  5.8365409E-01
   7163.67  5.8271391E-01
   7164.00  5.8149215E-01
   7164.33  5.7992061E-01
   7164.67  5.7801801E-01
   7165.00  5.7577548E-01
   7165.33  5.7314929E-01
   7165.67  5.7018973E-01
   7166.00  5.6690912E-01
   7166.33  5.6328896E-01
   7166.67  5.5939157E-01
   7167.00  5.5524338E-01
   7167.33  5.5085456E-01
   7167.67  5.4629607E-01
   7168.00  5.4161210E-01
   7168.33  5.3684997E-01
   7168.67  5.3207557E-01
   7169.00  5.2733652E-01
   7169.33  5.2269348E-01
   7169.67  5.1817556E-01
   7170.00  5.1380678E-01
   7170.33  5.0962609E-01
   7170.67  5.0563020E-01
   7171.00  5.0184335E-01
   7171.33  4.9834668E-01
   7171.67  4.9522637E-01
   7172.00  4.9266643E-01
