    FDMNES
    energy     <xanes>
   7097.00  4.0927418E-03
   7097.33  4.1702963E-03
   7097.67  4.2506364E-03
   7098.00  4.3339205E-03
   7098.33  4.4207447E-03
   7098.67  4.5109393E-03
   7099.00  4.6047153E-03
   7099.33  4.7028264E-03
   7099.67  4.8050943E-03
   7100.00  4.9118081E-03
   7100.33  5.0239472E-03
   7100.67  5.1413344E-03
   7101.00  5.2643800E-03
   7101.33  5.3944005E-03
   7101.67  5.5312419E-03
   7102.00  5.6755120E-03
   7102.33  5.8290560E-03
   7102.67  5.9917951E-03
   7103.00  6.1646772E-03
   7103.33  6.3504280E-03
   7103.67  6.5491653E-03
   7104.00  6.7624652E-03
   7104.33  6.9946317E-03
   7104.67  7.2462797E-03
   7105.00  7.5202487E-03
   7105.33  7.8239445E-03
   7105.67  8.1592877E-03
   7106.00  8.5319514E-03
   7106.33  8.9562084E-03
   7106.67  9.4377378E-03
   7107.00  9.9895589E-03
   7107.33  1.0643802E-02
   7107.67  1.1418776E-02
   7108.00  1.2350852E-02
   7108.33  1.3530666E-02
   7108.67  1.5030958E-02
   7109.00  1.6988988E-02
   7109.33  1.9769261E-02
   7109.67  2.3793822E-02
   7110.00  2.9891573E-02
   7110.33  4.0446263E-02
   7110.67  5.7864692E-02
   7111.00  8.2026546E-02
   7111.33  1.0495592E-01
   7111.67  1.2277269E-01
   7112.00  1.3394392E-01
   7112.33  1.2892666E-01
   7112.67  1.1291571E-01
   7113.00  9.5332527E-02
   7113.33  8.0717763E-02
   7113.67  6.8833231E-02
   7114.00  5.9227450E-02
   7114.33  5.1825560E-02
   7114.67  4.5843908E-02
   7115.00  4.1500949E-02
   7115.33  3.9462421E-02
   7115.67  3.9107452E-02
   7116.00  3.9954392E-02
   7116.33  4.1579144E-02
   7116.67  4.3602969E-02
   7117.00  4.6117581E-02
   7117.33  4.9607904E-02
   7117.67  5.4273946E-02
   7118.00  6.0151670E-02
   7118.33  6.7048934E-02
   7118.67  7.4270571E-02
   7119.00  8.1302751E-02
   7119.33  8.7327315E-02
   7119.67  9.1894266E-02
   7120.00  9.5308959E-02
   7120.33  9.8573920E-02
   7120.67  1.0282765E-01
   7121.00  1.0898848E-01
   7121.33  1.1836453E-01
   7121.67  1.3135159E-01
   7122.00  1.4843870E-01
   7122.33  1.7058576E-01
   7122.67  1.9716389E-01
   7123.00  2.2699739E-01
   7123.33  2.5605386E-01
   7123.67  2.7994268E-01
   7124.00  2.9908863E-01
   7124.33  3.1788378E-01
   7124.67  3.3823662E-01
   7125.00  3.5899826E-01
   7125.33  3.7866166E-01
   7125.67  3.9753191E-01
   7126.00  4.1715857E-01
   7126.33  4.4092740E-01
   7126.67  4.7121050E-01
   7127.00  5.0925518E-01
   7127.33  5.5538178E-01
   7127.67  6.0617370E-01
   7128.00  6.5890737E-01
   7128.33  7.1080618E-01
   7128.67  7.5953102E-01
   7129.00  8.0264937E-01
   7129.33  8.3695421E-01
   7129.67  8.6389608E-01
   7130.00  8.8573366E-01
   7130.33  9.0431354E-01
   7130.67  9.2024912E-01
   7131.00  9.3181624E-01
   7131.33  9.3403735E-01
   7131.67  9.2477758E-01
   7132.00  9.0512173E-01
   7132.33  8.8031727E-01
   7132.67  8.5760286E-01
   7133.00  8.4079074E-01
   7133.33  8.3254237E-01
   7133.67  8.3133747E-01
   7134.00  8.3540262E-01
   7134.33  8.4201677E-01
   7134.67  8.4760297E-01
   7135.00  8.4968726E-01
   7135.33  8.4568156E-01
   7135.67  8.3576080E-01
   7136.00  8.2059623E-01
   7136.33  8.0133073E-01
   7136.67  7.8026296E-01
   7137.00  7.5877955E-01
   7137.33  7.3815015E-01
   7137.67  7.1896904E-01
   7138.00  7.0151070E-01
   7138.33  6.8605953E-01
   7138.67  6.7227709E-01
   7139.00  6.5998329E-01
   7139.33  6.4907339E-01
   7139.67  6.3911563E-01
   7140.00  6.2987468E-01
   7140.33  6.2115680E-01
   7140.67  6.1270670E-01
   7141.00  6.0441490E-01
   7141.33  5.9621106E-01
   7141.67  5.8805493E-01
   7142.00  5.7995885E-01
   7142.33  5.7197687E-01
   7142.67  5.6414587E-01
   7143.00  5.5650127E-01
   7143.33  5.4909269E-01
   7143.67  5.4189797E-01
   7144.00  5.3490977E-01
   7144.33  5.2813791E-01
   7144.67  5.2154534E-01
   7145.00  5.1512621E-01
   7145.33  5.0890399E-01
   7145.67  5.0286954E-01
   7146.00  4.9704355E-01
   7146.33  4.9149085E-01
   7146.67  4.8622165E-01
   7147.00  4.8127014E-01
   7147.33  4.7671524E-01
   7147.67  4.7253794E-01
   7148.00  4.6874808E-01
   7148.33  4.6538709E-01
   7148.67  4.6238264E-01
   7149.00  4.5970539E-01
   7149.33  4.5735210E-01
   7149.67  4.5523849E-01
   7150.00  4.5331576E-01
   7150.33  4.5153628E-01
   7150.67  4.4981630E-01
   7151.00  4.4809653E-01
   7151.33  4.4630126E-01
   7151.67  4.4437230E-01
   7152.00  4.4225002E-01
   7152.33  4.3983417E-01
   7152.67  4.3708899E-01
   7153.00  4.3395135E-01
   7153.33  4.3028728E-01
   7153.67  4.2607572E-01
   7154.00  4.2124602E-01
   7154.33  4.1563643E-01
   7154.67  4.0927744E-01
   7155.00  4.0214507E-01
   7155.33  3.9415461E-01
   7155.67  3.8546202E-01
   7156.00  3.7616122E-01
   7156.33  3.6634793E-01
   7156.67  3.5626707E-01
   7157.00  3.4609766E-01
   7157.33  3.3607373E-01
   7157.67  3.2639407E-01
   7158.00  3.1722900E-01
   7158.33  3.0883723E-01
   7158.67  3.0127423E-01
   7159.00  2.9463500E-01
   7159.33  2.8912784E-01
   7159.67  2.8468744E-01
   7160.00  2.8135294E-01
   7160.33  2.7929885E-01
   7160.67  2.7839932E-01
   7161.00  2.7865375E-01
   7161.33  2.8018240E-01
   7161.67  2.8279336E-01
   7162.00  2.8641767E-01
   7162.33  2.9106551E-01
   7162.67  2.9650201E-01
   7163.00  3.0262397E-01
   7163.33  3.0937769E-01
   7163.67  3.1656483E-01
   7164.00  3.2408048E-01
   7164.33  3.3183380E-01
   7164.67  3.3968441E-01
   7165.00  3.4753811E-01
   7165.33  3.5528028E-01
   7165.67  3.6283266E-01
   7166.00  3.7012930E-01
   7166.33  3.7706861E-01
   7166.67  3.8364227E-01
   7167.00  3.8982287E-01
   7167.33  3.9555095E-01
   7167.67  4.0088886E-01
   7168.00  4.0585921E-01
   7168.33  4.1045747E-01
   7168.67  4.1476788E-01
   7169.00  4.1882776E-01
   7169.33  4.2265089E-01
   7169.67  4.2629633E-01
   7170.00  4.2978414E-01
   7170.33  4.3310866E-01
   7170.67  4.3628614E-01
   7171.00  4.3929950E-01
   7171.33  4.4207409E-01
   7171.67  4.4453654E-01
   7172.00  4.4655158E-01
