    FDMNES
    energy     <xanes>
   7097.00  4.9531868E-03
   7097.33  5.0686531E-03
   7097.67  5.1893058E-03
   7098.00  5.3154936E-03
   7098.33  5.4484128E-03
   7098.67  5.5878148E-03
   7099.00  5.7341736E-03
   7099.33  5.8890502E-03
   7099.67  6.0521889E-03
   7100.00  6.2242512E-03
   7100.33  6.4073267E-03
   7100.67  6.6011751E-03
   7101.00  6.8067481E-03
   7101.33  7.0269286E-03
   7101.67  7.2615422E-03
   7102.00  7.5120086E-03
   7102.33  7.7824519E-03
   7102.67  8.0728758E-03
   7103.00  8.3854917E-03
   7103.33  8.7264666E-03
   7103.67  9.0962361E-03
   7104.00  9.4984350E-03
   7104.33  9.9428080E-03
   7104.67  1.0430829E-02
   7105.00  1.0968889E-02
   7105.33  1.1573517E-02
   7105.67  1.2248787E-02
   7106.00  1.3006975E-02
   7106.33  1.3878897E-02
   7106.67  1.4875729E-02
   7107.00  1.6024097E-02
   7107.33  1.7389594E-02
   7107.67  1.9005860E-02
   7108.00  2.0941801E-02
   7108.33  2.3367889E-02
   7108.67  2.6407745E-02
   7109.00  3.0297144E-02
   7109.33  3.5650899E-02
   7109.67  4.3122938E-02
   7110.00  5.3989359E-02
   7110.33  7.1899414E-02
   7110.67  1.0096719E-01
   7111.00  1.4399903E-01
   7111.33  1.9455395E-01
   7111.67  2.3456096E-01
   7112.00  2.5465081E-01
   7112.33  2.6903791E-01
   7112.67  2.9353590E-01
   7113.00  3.2584089E-01
   7113.33  3.6306225E-01
   7113.67  4.0667090E-01
   7114.00  4.4476605E-01
   7114.33  4.3600937E-01
   7114.67  3.7986070E-01
   7115.00  3.0859053E-01
   7115.33  2.5136727E-01
   7115.67  2.1087322E-01
   7116.00  1.8371337E-01
   7116.33  1.6598085E-01
   7116.67  1.5189563E-01
   7117.00  1.3850966E-01
   7117.33  1.2599276E-01
   7117.67  1.1638377E-01
   7118.00  1.1057253E-01
   7118.33  1.0859324E-01
   7118.67  1.0875164E-01
   7119.00  1.1012732E-01
   7119.33  1.1299827E-01
   7119.67  1.1788333E-01
   7120.00  1.2482225E-01
   7120.33  1.3228277E-01
   7120.67  1.3834577E-01
   7121.00  1.4349622E-01
   7121.33  1.4923363E-01
   7121.67  1.5579492E-01
   7122.00  1.6333596E-01
   7122.33  1.7265200E-01
   7122.67  1.8380606E-01
   7123.00  1.9642002E-01
   7123.33  2.0991760E-01
   7123.67  2.2416148E-01
   7124.00  2.3971447E-01
   7124.33  2.5717084E-01
   7124.67  2.7547882E-01
   7125.00  2.9321342E-01
   7125.33  3.0951357E-01
   7125.67  3.2554360E-01
   7126.00  3.4235489E-01
   7126.33  3.6046723E-01
   7126.67  3.7942819E-01
   7127.00  3.9886951E-01
   7127.33  4.1866331E-01
   7127.67  4.3889200E-01
   7128.00  4.5974934E-01
   7128.33  4.8167400E-01
   7128.67  5.0518100E-01
   7129.00  5.3123960E-01
   7129.33  5.6162348E-01
   7129.67  5.9613636E-01
   7130.00  6.3356841E-01
   7130.33  6.7152689E-01
   7130.67  7.0742366E-01
   7131.00  7.3893975E-01
   7131.33  7.6206622E-01
   7131.67  7.7592452E-01
   7132.00  7.8145098E-01
   7132.33  7.8161635E-01
   7132.67  7.8117835E-01
   7133.00  7.8279217E-01
   7133.33  7.8829239E-01
   7133.67  7.9687203E-01
   7134.00  8.0703557E-01
   7134.33  8.1600060E-01
   7134.67  8.2096257E-01
   7135.00  8.1986771E-01
   7135.33  8.1066772E-01
   7135.67  7.9482946E-01
   7136.00  7.7415421E-01
   7136.33  7.5128609E-01
   7136.67  7.2906223E-01
   7137.00  7.0884561E-01
   7137.33  6.9147562E-01
   7137.67  6.7639569E-01
   7138.00  6.6313175E-01
   7138.33  6.5126499E-01
   7138.67  6.4022763E-01
   7139.00  6.2987746E-01
   7139.33  6.2040565E-01
   7139.67  6.1201301E-01
   7140.00  6.0501743E-01
   7140.33  5.9994024E-01
   7140.67  5.9671832E-01
   7141.00  5.9534286E-01
   7141.33  5.9585660E-01
   7141.67  5.9771023E-01
   7142.00  6.0048111E-01
   7142.33  6.0359583E-01
   7142.67  6.0635614E-01
   7143.00  6.0825099E-01
   7143.33  6.0870828E-01
   7143.67  6.0774268E-01
   7144.00  6.0543120E-01
   7144.33  6.0186824E-01
   7144.67  5.9746577E-01
   7145.00  5.9242331E-01
   7145.33  5.8684801E-01
   7145.67  5.8090985E-01
   7146.00  5.7468402E-01
   7146.33  5.6823609E-01
   7146.67  5.6169849E-01
   7147.00  5.5518275E-01
   7147.33  5.4885815E-01
   7147.67  5.4284389E-01
   7148.00  5.3724293E-01
   7148.33  5.3222912E-01
   7148.67  5.2782803E-01
   7149.00  5.2409243E-01
   7149.33  5.2113609E-01
   7149.67  5.1886211E-01
   7150.00  5.1723325E-01
   7150.33  5.1624857E-01
   7150.67  5.1574269E-01
   7151.00  5.1562684E-01
   7151.33  5.1583285E-01
   7151.67  5.1622810E-01
   7152.00  5.1673961E-01
   7152.33  5.1730235E-01
   7152.67  5.1785467E-01
   7153.00  5.1835849E-01
   7153.33  5.1876728E-01
   7153.67  5.1906115E-01
   7154.00  5.1921636E-01
   7154.33  5.1918733E-01
   7154.67  5.1897303E-01
   7155.00  5.1855783E-01
   7155.33  5.1789798E-01
   7155.67  5.1700338E-01
   7156.00  5.1585614E-01
   7156.33  5.1439435E-01
   7156.67  5.1261950E-01
   7157.00  5.1050091E-01
   7157.33  5.0796067E-01
   7157.67  5.0502899E-01
   7158.00  5.0171029E-01
   7158.33  4.9799199E-01
   7158.67  4.9397928E-01
   7159.00  4.8974354E-01
   7159.33  4.8536599E-01
   7159.67  4.8096463E-01
   7160.00  4.7662065E-01
   7160.33  4.7242866E-01
   7160.67  4.6843040E-01
   7161.00  4.6466161E-01
   7161.33  4.6117913E-01
   7161.67  4.5796168E-01
   7162.00  4.5501237E-01
   7162.33  4.5236480E-01
   7162.67  4.4997987E-01
   7163.00  4.4784462E-01
   7163.33  4.4597395E-01
   7163.67  4.4433148E-01
   7164.00  4.4291109E-01
   7164.33  4.4172673E-01
   7164.67  4.4073367E-01
   7165.00  4.3991301E-01
   7165.33  4.3925866E-01
   7165.67  4.3872518E-01
   7166.00  4.3828864E-01
   7166.33  4.3792979E-01
   7166.67  4.3761215E-01
   7167.00  4.3731179E-01
   7167.33  4.3700097E-01
   7167.67  4.3665706E-01
   7168.00  4.3626250E-01
   7168.33  4.3579357E-01
   7168.67  4.3525105E-01
   7169.00  4.3463089E-01
   7169.33  4.3392387E-01
   7169.67  4.3314922E-01
   7170.00  4.3232128E-01
   7170.33  4.3145946E-01
   7170.67  4.3059734E-01
   7171.00  4.2976473E-01
   7171.33  4.2900799E-01
   7171.67  4.2835783E-01
   7172.00  4.2784391E-01
