    FDMNES
    energy     <xanes>
   7097.00  5.1375189E-03
   7097.33  5.2693230E-03
   7097.67  5.4076951E-03
   7098.00  5.5531183E-03
   7098.33  5.7071778E-03
   7098.67  5.8696154E-03
   7099.00  6.0411023E-03
   7099.33  6.2237555E-03
   7099.67  6.4173268E-03
   7100.00  6.6227742E-03
   7100.33  6.8430042E-03
   7100.67  7.0778218E-03
   7101.00  7.3286392E-03
   7101.33  7.5995777E-03
   7101.67  7.8905892E-03
   7102.00  8.2038362E-03
   7102.33  8.5453913E-03
   7102.67  8.9155599E-03
   7103.00  9.3178064E-03
   7103.33  9.7615062E-03
   7103.67  1.0247786E-02
   7104.00  1.0782511E-02
   7104.33  1.1381017E-02
   7104.67  1.2046373E-02
   7105.00  1.2789228E-02
   7105.33  1.3636573E-02
   7105.67  1.4596343E-02
   7106.00  1.5689692E-02
   7106.33  1.6968951E-02
   7106.67  1.8455463E-02
   7107.00  2.0196712E-02
   7107.33  2.2308696E-02
   7107.67  2.4855666E-02
   7108.00  2.7964732E-02
   7108.33  3.1949448E-02
   7108.67  3.7047928E-02
   7109.00  4.3708057E-02
   7109.33  5.3098824E-02
   7109.67  6.6490778E-02
   7110.00  8.6352707E-02
   7110.33  1.1971004E-01
   7110.67  1.7412544E-01
   7111.00  2.5347873E-01
   7111.33  3.4747749E-01
   7111.67  4.3890554E-01
   7112.00  5.1863277E-01
   7112.33  5.6396385E-01
   7112.67  5.7807234E-01
   7113.00  5.8427445E-01
   7113.33  5.5354115E-01
   7113.67  4.4981024E-01
   7114.00  3.2666211E-01
   7114.33  2.4142166E-01
   7114.67  1.8756103E-01
   7115.00  1.5514879E-01
   7115.33  1.3976798E-01
   7115.67  1.3643564E-01
   7116.00  1.4059276E-01
   7116.33  1.4025993E-01
   7116.67  1.2947226E-01
   7117.00  1.1305211E-01
   7117.33  9.8141864E-02
   7117.67  8.7168611E-02
   7118.00  7.9945245E-02
   7118.33  7.6097397E-02
   7118.67  7.4541134E-02
   7119.00  7.4396680E-02
   7119.33  7.4169560E-02
   7119.67  7.3462796E-02
   7120.00  7.3089511E-02
   7120.33  7.3598382E-02
   7120.67  7.4564188E-02
   7121.00  7.5815004E-02
   7121.33  7.7811249E-02
   7121.67  8.1010106E-02
   7122.00  8.5717583E-02
   7122.33  9.2432261E-02
   7122.67  1.0125470E-01
   7123.00  1.1252931E-01
   7123.33  1.2710590E-01
   7123.67  1.4523017E-01
   7124.00  1.6754201E-01
   7124.33  1.9531731E-01
   7124.67  2.2811269E-01
   7125.00  2.6535474E-01
   7125.33  3.0534159E-01
   7125.67  3.4379587E-01
   7126.00  3.7618162E-01
   7126.33  3.9661411E-01
   7126.67  4.0550236E-01
   7127.00  4.0590318E-01
   7127.33  4.0282651E-01
   7127.67  4.0074004E-01
   7128.00  4.0155018E-01
   7128.33  4.0650099E-01
   7128.67  4.1447244E-01
   7129.00  4.2410473E-01
   7129.33  4.3380710E-01
   7129.67  4.4248974E-01
   7130.00  4.4960876E-01
   7130.33  4.5477342E-01
   7130.67  4.5891691E-01
   7131.00  4.6355246E-01
   7131.33  4.7142602E-01
   7131.67  4.8444585E-01
   7132.00  5.0400388E-01
   7132.33  5.3183419E-01
   7132.67  5.6716898E-01
   7133.00  6.0977951E-01
   7133.33  6.5926504E-01
   7133.67  7.1220223E-01
   7134.00  7.6575625E-01
   7134.33  8.1632288E-01
   7134.67  8.5906816E-01
   7135.00  8.8692079E-01
   7135.33  8.9101354E-01
   7135.67  8.7661158E-01
   7136.00  8.5146313E-01
   7136.33  8.2400359E-01
   7136.67  7.9968621E-01
   7137.00  7.8036699E-01
   7137.33  7.6694101E-01
   7137.67  7.5777854E-01
   7138.00  7.5148804E-01
   7138.33  7.4629132E-01
   7138.67  7.4026795E-01
   7139.00  7.3231017E-01
   7139.33  7.2169370E-01
   7139.67  7.0928309E-01
   7140.00  6.9613823E-01
   7140.33  6.8375507E-01
   7140.67  6.7319439E-01
   7141.00  6.6502487E-01
   7141.33  6.5971591E-01
   7141.67  6.5666459E-01
   7142.00  6.5541658E-01
   7142.33  6.5552535E-01
   7142.67  6.5631939E-01
   7143.00  6.5748412E-01
   7143.33  6.5884377E-01
   7143.67  6.6032520E-01
   7144.00  6.6195161E-01
   7144.33  6.6378179E-01
   7144.67  6.6581155E-01
   7145.00  6.6805349E-01
   7145.33  6.7055957E-01
   7145.67  6.7334200E-01
   7146.00  6.7646135E-01
   7146.33  6.8007963E-01
   7146.67  6.8427740E-01
   7147.00  6.8916887E-01
   7147.33  6.9491352E-01
   7147.67  7.0130037E-01
   7148.00  7.0799361E-01
   7148.33  7.1419431E-01
   7148.67  7.1890542E-01
   7149.00  7.2117879E-01
   7149.33  7.1984514E-01
   7149.67  7.1525705E-01
   7150.00  7.0796933E-01
   7150.33  6.9878417E-01
   7150.67  6.8890399E-01
   7151.00  6.7895008E-01
   7151.33  6.6937343E-01
   7151.67  6.6027674E-01
   7152.00  6.5164992E-01
   7152.33  6.4345887E-01
   7152.67  6.3555141E-01
   7153.00  6.2784829E-01
   7153.33  6.2030003E-01
   7153.67  6.1285113E-01
   7154.00  6.0548793E-01
   7154.33  5.9821887E-01
   7154.67  5.9103648E-01
   7155.00  5.8393957E-01
   7155.33  5.7692068E-01
   7155.67  5.6993013E-01
   7156.00  5.6290959E-01
   7156.33  5.5575341E-01
   7156.67  5.4837740E-01
   7157.00  5.4071055E-01
   7157.33  5.3267951E-01
   7157.67  5.2436820E-01
   7158.00  5.1587809E-01
   7158.33  5.0738486E-01
   7158.67  4.9909495E-01
   7159.00  4.9118136E-01
   7159.33  4.8388296E-01
   7159.67  4.7725118E-01
   7160.00  4.7134306E-01
   7160.33  4.6626761E-01
   7160.67  4.6190133E-01
   7161.00  4.5818847E-01
   7161.33  4.5511227E-01
   7161.67  4.5250153E-01
   7162.00  4.5026681E-01
   7162.33  4.4833386E-01
   7162.67  4.4655058E-01
   7163.00  4.4481909E-01
   7163.33  4.4303602E-01
   7163.67  4.4112217E-01
   7164.00  4.3901590E-01
   7164.33  4.3663119E-01
   7164.67  4.3396577E-01
   7165.00  4.3100926E-01
   7165.33  4.2773291E-01
   7165.67  4.2419480E-01
   7166.00  4.2042194E-01
   7166.33  4.1642500E-01
   7166.67  4.1226737E-01
   7167.00  4.0798371E-01
   7167.33  4.0360563E-01
   7167.67  3.9919504E-01
   7168.00  3.9480563E-01
   7168.33  3.9050504E-01
   7168.67  3.8633676E-01
   7169.00  3.8234798E-01
   7169.33  3.7862089E-01
   7169.67  3.7517255E-01
   7170.00  3.7203447E-01
   7170.33  3.6927481E-01
   7170.67  3.6686621E-01
   7171.00  3.6481217E-01
   7171.33  3.6314941E-01
   7171.67  3.6181747E-01
   7172.00  3.6079313E-01
