    FDMNES
    energy     <xanes>
   7097.00  5.2682997E-03
   7097.33  5.4081916E-03
   7097.67  5.5551514E-03
   7098.00  5.7097028E-03
   7098.33  5.8735590E-03
   7098.67  6.0464484E-03
   7099.00  6.2291012E-03
   7099.33  6.4238116E-03
   7099.67  6.6303225E-03
   7100.00  6.8496801E-03
   7100.33  7.0850457E-03
   7100.67  7.3362264E-03
   7101.00  7.6047722E-03
   7101.33  7.8951859E-03
   7101.67  8.2074483E-03
   7102.00  8.5439471E-03
   7102.33  8.9113565E-03
   7102.67  9.3100713E-03
   7103.00  9.7439462E-03
   7103.33  1.0223364E-02
   7103.67  1.0749683E-02
   7104.00  1.1329495E-02
   7104.33  1.1979949E-02
   7104.67  1.2704699E-02
   7105.00  1.3515857E-02
   7105.33  1.4444001E-02
   7105.67  1.5498593E-02
   7106.00  1.6704077E-02
   7106.33  1.8120748E-02
   7106.67  1.9774321E-02
   7107.00  2.1720805E-02
   7107.33  2.4096869E-02
   7107.67  2.6981330E-02
   7108.00  3.0528150E-02
   7108.33  3.5117900E-02
   7108.67  4.1050099E-02
   7109.00  4.8885756E-02
   7109.33  6.0097585E-02
   7109.67  7.6332677E-02
   7110.00  1.0080378E-01
   7110.33  1.4282249E-01
   7110.67  2.1351239E-01
   7111.00  3.2021899E-01
   7111.33  4.3527380E-01
   7111.67  5.2233689E-01
   7112.00  5.5864296E-01
   7112.33  5.5214360E-01
   7112.67  5.4803470E-01
   7113.00  5.5298892E-01
   7113.33  5.2685712E-01
   7113.67  4.3344552E-01
   7114.00  3.2072834E-01
   7114.33  2.3726695E-01
   7114.67  1.7832981E-01
   7115.00  1.3858645E-01
   7115.33  1.1398622E-01
   7115.67  9.7290301E-02
   7116.00  8.4810129E-02
   7116.33  7.5196531E-02
   7116.67  6.7765947E-02
   7117.00  6.2501134E-02
   7117.33  5.9393184E-02
   7117.67  5.7855533E-02
   7118.00  5.7744337E-02
   7118.33  5.9258349E-02
   7118.67  6.2400949E-02
   7119.00  6.7352608E-02
   7119.33  7.4083106E-02
   7119.67  8.1124015E-02
   7120.00  8.6864457E-02
   7120.33  9.0551661E-02
   7120.67  9.3854432E-02
   7121.00  9.8174795E-02
   7121.33  1.0497796E-01
   7121.67  1.1503161E-01
   7122.00  1.2919835E-01
   7122.33  1.4930579E-01
   7122.67  1.7630285E-01
   7123.00  2.1157756E-01
   7123.33  2.5572668E-01
   7123.67  3.0322482E-01
   7124.00  3.5002639E-01
   7124.33  3.9862692E-01
   7124.67  4.5313833E-01
   7125.00  5.1006788E-01
   7125.33  5.5594169E-01
   7125.67  5.8131493E-01
   7126.00  5.8538307E-01
   7126.33  5.7377079E-01
   7126.67  5.5722911E-01
   7127.00  5.4163830E-01
   7127.33  5.3263462E-01
   7127.67  5.3143386E-01
   7128.00  5.3650739E-01
   7128.33  5.4415719E-01
   7128.67  5.5052030E-01
   7129.00  5.5432197E-01
   7129.33  5.5542624E-01
   7129.67  5.5507270E-01
   7130.00  5.5439218E-01
   7130.33  5.5501433E-01
   7130.67  5.5832133E-01
   7131.00  5.6558405E-01
   7131.33  5.7865169E-01
   7131.67  5.9730370E-01
   7132.00  6.2074063E-01
   7132.33  6.4629523E-01
   7132.67  6.6904579E-01
   7133.00  6.8525056E-01
   7133.33  6.9264273E-01
   7133.67  6.9466388E-01
   7134.00  6.9482912E-01
   7134.33  6.9683123E-01
   7134.67  7.0205358E-01
   7135.00  7.1035309E-01
   7135.33  7.2068549E-01
   7135.67  7.3095924E-01
   7136.00  7.3968551E-01
   7136.33  7.4577871E-01
   7136.67  7.5008617E-01
   7137.00  7.5384990E-01
   7137.33  7.5864294E-01
   7137.67  7.6481997E-01
   7138.00  7.7137453E-01
   7138.33  7.7508076E-01
   7138.67  7.7267405E-01
   7139.00  7.6233164E-01
   7139.33  7.4404139E-01
   7139.67  7.2203000E-01
   7140.00  6.9944556E-01
   7140.33  6.7903777E-01
   7140.67  6.6160734E-01
   7141.00  6.4723606E-01
   7141.33  6.3591441E-01
   7141.67  6.2681941E-01
   7142.00  6.1956883E-01
   7142.33  6.1400461E-01
   7142.67  6.0971322E-01
   7143.00  6.0659591E-01
   7143.33  6.0477270E-01
   7143.67  6.0406401E-01
   7144.00  6.0439625E-01
   7144.33  6.0575739E-01
   7144.67  6.0784689E-01
   7145.00  6.1044895E-01
   7145.33  6.1328329E-01
   7145.67  6.1599650E-01
   7146.00  6.1833443E-01
   7146.33  6.2000937E-01
   7146.67  6.2098755E-01
   7147.00  6.2123965E-01
   7147.33  6.2065249E-01
   7147.67  6.1925869E-01
   7148.00  6.1695619E-01
   7148.33  6.1345880E-01
   7148.67  6.0876886E-01
   7149.00  6.0285473E-01
   7149.33  5.9567860E-01
   7149.67  5.8761782E-01
   7150.00  5.7895025E-01
   7150.33  5.6998889E-01
   7150.67  5.6107186E-01
   7151.00  5.5238924E-01
   7151.33  5.4410048E-01
   7151.67  5.3617429E-01
   7152.00  5.2856027E-01
   7152.33  5.2117900E-01
   7152.67  5.1387211E-01
   7153.00  5.0651910E-01
   7153.33  4.9896253E-01
   7153.67  4.9111022E-01
   7154.00  4.8288871E-01
   7154.33  4.7419608E-01
   7154.67  4.6508016E-01
   7155.00  4.5557598E-01
   7155.33  4.4572956E-01
   7155.67  4.3570370E-01
   7156.00  4.2563053E-01
   7156.33  4.1569716E-01
   7156.67  4.0606491E-01
   7157.00  3.9687785E-01
   7157.33  3.8835724E-01
   7157.67  3.8054746E-01
   7158.00  3.7352491E-01
   7158.33  3.6745243E-01
   7158.67  3.6224957E-01
   7159.00  3.5791714E-01
   7159.33  3.5453826E-01
   7159.67  3.5195832E-01
   7160.00  3.5011583E-01
   7160.33  3.4899661E-01
   7160.67  3.4840005E-01
   7161.00  3.4820425E-01
   7161.33  3.4828223E-01
   7161.67  3.4843553E-01
   7162.00  3.4851841E-01
   7162.33  3.4834187E-01
   7162.67  3.4779664E-01
   7163.00  3.4678708E-01
   7163.33  3.4516618E-01
   7163.67  3.4297488E-01
   7164.00  3.4023581E-01
   7164.33  3.3695812E-01
   7164.67  3.3330661E-01
   7165.00  3.2939294E-01
   7165.33  3.2534749E-01
   7165.67  3.2133339E-01
   7166.00  3.1747088E-01
   7166.33  3.1391682E-01
   7166.67  3.1073589E-01
   7167.00  3.0799256E-01
   7167.33  3.0579885E-01
   7167.67  3.0412038E-01
   7168.00  3.0296386E-01
   7168.33  3.0238662E-01
   7168.67  3.0230508E-01
   7169.00  3.0269554E-01
   7169.33  3.0357886E-01
   7169.67  3.0486141E-01
   7170.00  3.0650632E-01
   7170.33  3.0850439E-01
   7170.67  3.1075737E-01
   7171.00  3.1319823E-01
   7171.33  3.1571786E-01
   7171.67  3.1810740E-01
   7172.00  3.2011054E-01
