    FDMNES
    energy     <xanes>
   7097.00  5.1939556E-03
   7097.33  5.3172636E-03
   7097.67  5.4461998E-03
   7098.00  5.5811448E-03
   7098.33  5.7234009E-03
   7098.67  5.8727007E-03
   7099.00  6.0295617E-03
   7099.33  6.1956840E-03
   7099.67  6.3707918E-03
   7100.00  6.5556066E-03
   7100.33  6.7524038E-03
   7100.67  6.9609230E-03
   7101.00  7.1822005E-03
   7101.33  7.4193728E-03
   7101.67  7.6722483E-03
   7102.00  7.9423686E-03
   7102.33  8.2342133E-03
   7102.67  8.5477773E-03
   7103.00  8.8854535E-03
   7103.33  9.2539218E-03
   7103.67  9.6536298E-03
   7104.00  1.0088492E-02
   7104.33  1.0569019E-02
   7104.67  1.1096743E-02
   7105.00  1.1678505E-02
   7105.33  1.2332026E-02
   7105.67  1.3061541E-02
   7106.00  1.3880081E-02
   7106.33  1.4820407E-02
   7106.67  1.5894080E-02
   7107.00  1.7129051E-02
   7107.33  1.8594238E-02
   7107.67  2.0324122E-02
   7108.00  2.2389971E-02
   7108.33  2.4967966E-02
   7108.67  2.8183019E-02
   7109.00  3.2274196E-02
   7109.33  3.7862741E-02
   7109.67  4.5596976E-02
   7110.00  5.6740490E-02
   7110.33  7.4890608E-02
   7110.67  1.0405816E-01
   7111.00  1.4695815E-01
   7111.33  1.9706889E-01
   7111.67  2.4001438E-01
   7112.00  2.7794141E-01
   7112.33  3.2014343E-01
   7112.67  3.5270192E-01
   7113.00  3.7104998E-01
   7113.33  3.9223997E-01
   7113.67  4.2060425E-01
   7114.00  4.3722511E-01
   7114.33  4.2461562E-01
   7114.67  3.9264383E-01
   7115.00  3.5164285E-01
   7115.33  3.1372241E-01
   7115.67  2.8555601E-01
   7116.00  2.6871621E-01
   7116.33  2.6299035E-01
   7116.67  2.6198901E-01
   7117.00  2.5779239E-01
   7117.33  2.4163105E-01
   7117.67  2.1748518E-01
   7118.00  1.9213742E-01
   7118.33  1.7092948E-01
   7118.67  1.5455218E-01
   7119.00  1.4268918E-01
   7119.33  1.3516431E-01
   7119.67  1.3081454E-01
   7120.00  1.2880620E-01
   7120.33  1.2796168E-01
   7120.67  1.2718925E-01
   7121.00  1.2642344E-01
   7121.33  1.2611038E-01
   7121.67  1.2658912E-01
   7122.00  1.2823340E-01
   7122.33  1.3182084E-01
   7122.67  1.3754883E-01
   7123.00  1.4539568E-01
   7123.33  1.5527529E-01
   7123.67  1.6680814E-01
   7124.00  1.8012343E-01
   7124.33  1.9578989E-01
   7124.67  2.1382139E-01
   7125.00  2.3429454E-01
   7125.33  2.5727436E-01
   7125.67  2.8192620E-01
   7126.00  3.0768052E-01
   7126.33  3.3429393E-01
   7126.67  3.6180960E-01
   7127.00  3.9036568E-01
   7127.33  4.1979678E-01
   7127.67  4.4927539E-01
   7128.00  4.7808546E-01
   7128.33  5.0565488E-01
   7128.67  5.3215634E-01
   7129.00  5.5781073E-01
   7129.33  5.8288094E-01
   7129.67  6.0770681E-01
   7130.00  6.3245414E-01
   7130.33  6.5733718E-01
   7130.67  6.8243146E-01
   7131.00  7.0756578E-01
   7131.33  7.3201357E-01
   7131.67  7.5470451E-01
   7132.00  7.7449363E-01
   7132.33  7.8991150E-01
   7132.67  8.0127225E-01
   7133.00  8.0908466E-01
   7133.33  8.1400136E-01
   7133.67  8.1726418E-01
   7134.00  8.1941099E-01
   7134.33  8.2066950E-01
   7134.67  8.2106870E-01
   7135.00  8.1995428E-01
   7135.33  8.1520841E-01
   7135.67  8.0494687E-01
   7136.00  7.8762179E-01
   7136.33  7.6204392E-01
   7136.67  7.3078342E-01
   7137.00  6.9629046E-01
   7137.33  6.6156745E-01
   7137.67  6.2906570E-01
   7138.00  6.0015102E-01
   7138.33  5.7622336E-01
   7138.67  5.5699517E-01
   7139.00  5.4239461E-01
   7139.33  5.3265432E-01
   7139.67  5.2676844E-01
   7140.00  5.2427436E-01
   7140.33  5.2497993E-01
   7140.67  5.2800799E-01
   7141.00  5.3294450E-01
   7141.33  5.3953001E-01
   7141.67  5.4717000E-01
   7142.00  5.5552116E-01
   7142.33  5.6421468E-01
   7142.67  5.7279561E-01
   7143.00  5.8091575E-01
   7143.33  5.8812065E-01
   7143.67  5.9425914E-01
   7144.00  5.9921135E-01
   7144.33  6.0278543E-01
   7144.67  6.0516353E-01
   7145.00  6.0638663E-01
   7145.33  6.0634775E-01
   7145.67  6.0519449E-01
   7146.00  6.0292256E-01
   7146.33  5.9939277E-01
   7146.67  5.9476124E-01
   7147.00  5.8907985E-01
   7147.33  5.8237012E-01
   7147.67  5.7495864E-01
   7148.00  5.6707161E-01
   7148.33  5.5896620E-01
   7148.67  5.5093426E-01
   7149.00  5.4317854E-01
   7149.33  5.3595044E-01
   7149.67  5.2933599E-01
   7150.00  5.2342547E-01
   7150.33  5.1838718E-01
   7150.67  5.1416692E-01
   7151.00  5.1078538E-01
   7151.33  5.0835468E-01
   7151.67  5.0675711E-01
   7152.00  5.0597154E-01
   7152.33  5.0605885E-01
   7152.67  5.0687357E-01
   7153.00  5.0836398E-01
   7153.33  5.1053322E-01
   7153.67  5.1322135E-01
   7154.00  5.1634598E-01
   7154.33  5.1984007E-01
   7154.67  5.2354660E-01
   7155.00  5.2736662E-01
   7155.33  5.3119203E-01
   7155.67  5.3492477E-01
   7156.00  5.3849253E-01
   7156.33  5.4179659E-01
   7156.67  5.4481317E-01
   7157.00  5.4750932E-01
   7157.33  5.4981749E-01
   7157.67  5.5176993E-01
   7158.00  5.5336652E-01
   7158.33  5.5457268E-01
   7158.67  5.5544742E-01
   7159.00  5.5600744E-01
   7159.33  5.5623810E-01
   7159.67  5.5619758E-01
   7160.00  5.5590022E-01
   7160.33  5.5532655E-01
   7160.67  5.5451300E-01
   7161.00  5.5346083E-01
   7161.33  5.5213738E-01
   7161.67  5.5056860E-01
   7162.00  5.4875448E-01
   7162.33  5.4667179E-01
   7162.67  5.4436425E-01
   7163.00  5.4184455E-01
   7163.33  5.3910023E-01
   7163.67  5.3618238E-01
   7164.00  5.3312231E-01
   7164.33  5.2994256E-01
   7164.67  5.2668781E-01
   7165.00  5.2338043E-01
   7165.33  5.2003612E-01
   7165.67  5.1667274E-01
   7166.00  5.1329864E-01
   7166.33  5.0991899E-01
   7166.67  5.0653663E-01
   7167.00  5.0315215E-01
   7167.33  4.9976551E-01
   7167.67  4.9637935E-01
   7168.00  4.9299803E-01
   7168.33  4.8962643E-01
   7168.67  4.8627077E-01
   7169.00  4.8294122E-01
   7169.33  4.7965319E-01
   7169.67  4.7641459E-01
   7170.00  4.7323986E-01
   7170.33  4.7016102E-01
   7170.67  4.6719529E-01
   7171.00  4.6437530E-01
   7171.33  4.6178514E-01
   7171.67  4.5949959E-01
   7172.00  4.5764396E-01
