    FDMNES
    energy     <xanes>
   7097.00  4.6604066E-03
   7097.33  4.7601747E-03
   7097.67  4.8639160E-03
   7098.00  4.9718684E-03
   7098.33  5.0848999E-03
   7098.67  5.2027815E-03
   7099.00  5.3258291E-03
   7099.33  5.4551458E-03
   7099.67  5.5904881E-03
   7100.00  5.7322865E-03
   7100.33  5.8819777E-03
   7100.67  6.0393147E-03
   7101.00  6.2049033E-03
   7101.33  6.3806704E-03
   7101.67  6.5663935E-03
   7102.00  6.7629571E-03
   7102.33  6.9730427E-03
   7102.67  7.1965154E-03
   7103.00  7.4347281E-03
   7103.33  7.6915879E-03
   7103.67  7.9671950E-03
   7104.00  8.2637416E-03
   7104.33  8.5872657E-03
   7104.67  8.9384612E-03
   7105.00  9.3211508E-03
   7105.33  9.7454082E-03
   7105.67  1.0213463E-02
   7106.00  1.0732648E-02
   7106.33  1.1321586E-02
   7106.67  1.1986801E-02
   7107.00  1.2744299E-02
   7107.33  1.3633758E-02
   7107.67  1.4675512E-02
   7108.00  1.5911472E-02
   7108.33  1.7445597E-02
   7108.67  1.9353792E-02
   7109.00  2.1780528E-02
   7109.33  2.5101574E-02
   7109.67  2.9713716E-02
   7110.00  3.6386938E-02
   7110.33  4.7342181E-02
   7110.67  6.5470050E-02
   7111.00  9.4505889E-02
   7111.33  1.3484588E-01
   7111.67  1.6870309E-01
   7112.00  1.7509457E-01
   7112.33  1.6783053E-01
   7112.67  1.6835509E-01
   7113.00  1.6307609E-01
   7113.33  1.4489740E-01
   7113.67  1.3361911E-01
   7114.00  1.3201679E-01
   7114.33  1.2714442E-01
   7114.67  1.1422030E-01
   7115.00  1.0026314E-01
   7115.33  9.1475759E-02
   7115.67  8.7827240E-02
   7116.00  8.8724287E-02
   7116.33  9.4197791E-02
   7116.67  1.0347613E-01
   7117.00  1.1625669E-01
   7117.33  1.3254065E-01
   7117.67  1.5217403E-01
   7118.00  1.7575076E-01
   7118.33  2.0382763E-01
   7118.67  2.3477644E-01
   7119.00  2.6680945E-01
   7119.33  2.9738945E-01
   7119.67  3.2508673E-01
   7120.00  3.4978597E-01
   7120.33  3.7239560E-01
   7120.67  3.9469018E-01
   7121.00  4.1742579E-01
   7121.33  4.4018587E-01
   7121.67  4.6139477E-01
   7122.00  4.7963286E-01
   7122.33  4.9380719E-01
   7122.67  5.0507198E-01
   7123.00  5.1468871E-01
   7123.33  5.2416927E-01
   7123.67  5.3455804E-01
   7124.00  5.4605769E-01
   7124.33  5.5799957E-01
   7124.67  5.6871803E-01
   7125.00  5.7663529E-01
   7125.33  5.8012403E-01
   7125.67  5.7979903E-01
   7126.00  5.7669035E-01
   7126.33  5.7228900E-01
   7126.67  5.6829237E-01
   7127.00  5.6576693E-01
   7127.33  5.6583821E-01
   7127.67  5.6848016E-01
   7128.00  5.7333313E-01
   7128.33  5.7967319E-01
   7128.67  5.8640982E-01
   7129.00  5.9293709E-01
   7129.33  5.9872810E-01
   7129.67  6.0361293E-01
   7130.00  6.0742182E-01
   7130.33  6.0974403E-01
   7130.67  6.1042316E-01
   7131.00  6.0916296E-01
   7131.33  6.0542814E-01
   7131.67  5.9944782E-01
   7132.00  5.9141145E-01
   7132.33  5.8158769E-01
   7132.67  5.7081179E-01
   7133.00  5.5967079E-01
   7133.33  5.4883200E-01
   7133.67  5.3876987E-01
   7134.00  5.2979120E-01
   7134.33  5.2226892E-01
   7134.67  5.1612429E-01
   7135.00  5.1135760E-01
   7135.33  5.0808441E-01
   7135.67  5.0605488E-01
   7136.00  5.0517841E-01
   7136.33  5.0546002E-01
   7136.67  5.0663239E-01
   7137.00  5.0856986E-01
   7137.33  5.1120230E-01
   7137.67  5.1431043E-01
   7138.00  5.1777986E-01
   7138.33  5.2151689E-01
   7138.67  5.2537775E-01
   7139.00  5.2927036E-01
   7139.33  5.3308400E-01
   7139.67  5.3672984E-01
   7140.00  5.4012822E-01
   7140.33  5.4315929E-01
   7140.67  5.4581016E-01
   7141.00  5.4806181E-01
   7141.33  5.4988169E-01
   7141.67  5.5136852E-01
   7142.00  5.5258541E-01
   7142.33  5.5359233E-01
   7142.67  5.5449128E-01
   7143.00  5.5533503E-01
   7143.33  5.5615726E-01
   7143.67  5.5696742E-01
   7144.00  5.5775141E-01
   7144.33  5.5846883E-01
   7144.67  5.5908481E-01
   7145.00  5.5956197E-01
   7145.33  5.5983903E-01
   7145.67  5.5990682E-01
   7146.00  5.5974458E-01
   7146.33  5.5930476E-01
   7146.67  5.5860913E-01
   7147.00  5.5765487E-01
   7147.33  5.5640998E-01
   7147.67  5.5490926E-01
   7148.00  5.5315594E-01
   7148.33  5.5112347E-01
   7148.67  5.4884838E-01
   7149.00  5.4633655E-01
   7149.33  5.4356702E-01
   7149.67  5.4057629E-01
   7150.00  5.3737045E-01
   7150.33  5.3392752E-01
   7150.67  5.3027361E-01
   7151.00  5.2640441E-01
   7151.33  5.2228244E-01
   7151.67  5.1792294E-01
   7152.00  5.1331392E-01
   7152.33  5.0841076E-01
   7152.67  5.0324313E-01
   7153.00  4.9782414E-01
   7153.33  4.9215533E-01
   7153.67  4.8630021E-01
   7154.00  4.8029541E-01
   7154.33  4.7417355E-01
   7154.67  4.6799422E-01
   7155.00  4.6179693E-01
   7155.33  4.5562786E-01
   7155.67  4.4952278E-01
   7156.00  4.4351224E-01
   7156.33  4.3764467E-01
   7156.67  4.3193500E-01
   7157.00  4.2640934E-01
   7157.33  4.2112479E-01
   7157.67  4.1608539E-01
   7158.00  4.1131929E-01
   7158.33  4.0689950E-01
   7158.67  4.0282309E-01
   7159.00  3.9912136E-01
   7159.33  3.9588107E-01
   7159.67  3.9308221E-01
   7160.00  3.9074738E-01
   7160.33  3.8895814E-01
   7160.67  3.8766756E-01
   7161.00  3.8688068E-01
   7161.33  3.8665793E-01
   7161.67  3.8692541E-01
   7162.00  3.8766443E-01
   7162.33  3.8889459E-01
   7162.67  3.9051774E-01
   7163.00  3.9249210E-01
   7163.33  3.9480170E-01
   7163.67  3.9734751E-01
   7164.00  4.0006547E-01
   7164.33  4.0288840E-01
   7164.67  4.0573308E-01
   7165.00  4.0854220E-01
   7165.33  4.1124253E-01
   7165.67  4.1379428E-01
   7166.00  4.1616275E-01
   7166.33  4.1829461E-01
   7166.67  4.2020329E-01
   7167.00  4.2188778E-01
   7167.33  4.2332893E-01
   7167.67  4.2456740E-01
   7168.00  4.2561817E-01
   7168.33  4.2648427E-01
   7168.67  4.2721339E-01
   7169.00  4.2782537E-01
   7169.33  4.2832835E-01
   7169.67  4.2875304E-01
   7170.00  4.2911370E-01
   7170.33  4.2941844E-01
   7170.67  4.2968512E-01
   7171.00  4.2992156E-01
   7171.33  4.3013016E-01
   7171.67  4.3031358E-01
   7172.00  4.3046611E-01
