    FDMNES
    energy     <xanes>
   7097.00  4.9631973E-03
   7097.33  5.0748238E-03
   7097.67  5.1912974E-03
   7098.00  5.3129351E-03
   7098.33  5.4408397E-03
   7098.67  5.5747666E-03
   7099.00  5.7151437E-03
   7099.33  5.8633999E-03
   7099.67  6.0192801E-03
   7100.00  6.1833770E-03
   7100.33  6.3575881E-03
   7100.67  6.5416657E-03
   7101.00  6.7364552E-03
   7101.33  6.9445511E-03
   7101.67  7.1657536E-03
   7102.00  7.4013115E-03
   7102.33  7.6548975E-03
   7102.67  7.9264496E-03
   7103.00  8.2178913E-03
   7103.33  8.5346462E-03
   7103.67  8.8769922E-03
   7104.00  9.2480456E-03
   7104.33  9.6562467E-03
   7104.67  1.0102687E-02
   7105.00  1.0592744E-02
   7105.33  1.1140456E-02
   7105.67  1.1748912E-02
   7106.00  1.2428189E-02
   7106.33  1.3203741E-02
   7106.67  1.4083956E-02
   7107.00  1.5089879E-02
   7107.33  1.6273503E-02
   7107.67  1.7659091E-02
   7108.00  1.9298000E-02
   7108.33  2.1316575E-02
   7108.67  2.3797509E-02
   7109.00  2.6900239E-02
   7109.33  3.1031450E-02
   7109.67  3.6577381E-02
   7110.00  4.4279514E-02
   7110.33  5.6165572E-02
   7110.67  7.4195124E-02
   7111.00  9.9750381E-02
   7111.33  1.3797173E-01
   7111.67  1.9807935E-01
   7112.00  2.6689310E-01
   7112.33  3.1120636E-01
   7112.67  3.6090021E-01
   7113.00  4.0296543E-01
   7113.33  3.8751761E-01
   7113.67  3.2828021E-01
   7114.00  2.5080537E-01
   7114.33  1.9508596E-01
   7114.67  1.6958302E-01
   7115.00  1.7015485E-01
   7115.33  1.9192268E-01
   7115.67  2.2249653E-01
   7116.00  2.5720254E-01
   7116.33  2.8901114E-01
   7116.67  2.9406787E-01
   7117.00  2.6778073E-01
   7117.33  2.3382110E-01
   7117.67  2.0777272E-01
   7118.00  1.8982418E-01
   7118.33  1.7761598E-01
   7118.67  1.6795937E-01
   7119.00  1.5995959E-01
   7119.33  1.5365832E-01
   7119.67  1.4839010E-01
   7120.00  1.4363345E-01
   7120.33  1.3910820E-01
   7120.67  1.3495888E-01
   7121.00  1.3158553E-01
   7121.33  1.2962926E-01
   7121.67  1.2932389E-01
   7122.00  1.3098111E-01
   7122.33  1.3522001E-01
   7122.67  1.4193431E-01
   7123.00  1.5109280E-01
   7123.33  1.6278152E-01
   7123.67  1.7647437E-01
   7124.00  1.9208916E-01
   7124.33  2.0994254E-01
   7124.67  2.2967523E-01
   7125.00  2.5069944E-01
   7125.33  2.7185449E-01
   7125.67  2.9212372E-01
   7126.00  3.1104936E-01
   7126.33  3.2844723E-01
   7126.67  3.4511090E-01
   7127.00  3.6184490E-01
   7127.33  3.7957178E-01
   7127.67  3.9891073E-01
   7128.00  4.2063534E-01
   7128.33  4.4621197E-01
   7128.67  4.7595338E-01
   7129.00  5.0986241E-01
   7129.33  5.4763674E-01
   7129.67  5.8793384E-01
   7130.00  6.3019373E-01
   7130.33  6.7404039E-01
   7130.67  7.1862760E-01
   7131.00  7.6328551E-01
   7131.33  8.0721865E-01
   7131.67  8.4967188E-01
   7132.00  8.8952122E-01
   7132.33  9.2465223E-01
   7132.67  9.5431519E-01
   7133.00  9.7790111E-01
   7133.33  9.9415070E-01
   7133.67  1.0032434E+00
   7134.00  1.0043132E+00
   7134.33  9.9518420E-01
   7134.67  9.7665223E-01
   7135.00  9.4934432E-01
   7135.33  9.1400796E-01
   7135.67  8.7375050E-01
   7136.00  8.3064585E-01
   7136.33  7.8694848E-01
   7136.67  7.4469872E-01
   7137.00  7.0522249E-01
   7137.33  6.7013613E-01
   7137.67  6.3969172E-01
   7138.00  6.1423437E-01
   7138.33  5.9442454E-01
   7138.67  5.7924030E-01
   7139.00  5.6803762E-01
   7139.33  5.6025194E-01
   7139.67  5.5459592E-01
   7140.00  5.5047131E-01
   7140.33  5.4755823E-01
   7140.67  5.4547314E-01
   7141.00  5.4411418E-01
   7141.33  5.4349922E-01
   7141.67  5.4347359E-01
   7142.00  5.4393946E-01
   7142.33  5.4476922E-01
   7142.67  5.4570196E-01
   7143.00  5.4651962E-01
   7143.33  5.4690843E-01
   7143.67  5.4666231E-01
   7144.00  5.4559333E-01
   7144.33  5.4341600E-01
   7144.67  5.4017314E-01
   7145.00  5.3587571E-01
   7145.33  5.3052382E-01
   7145.67  5.2446606E-01
   7146.00  5.1798319E-01
   7146.33  5.1146847E-01
   7146.67  5.0535095E-01
   7147.00  4.9997097E-01
   7147.33  4.9577265E-01
   7147.67  4.9280547E-01
   7148.00  4.9110129E-01
   7148.33  4.9070531E-01
   7148.67  4.9126971E-01
   7149.00  4.9258139E-01
   7149.33  4.9443430E-01
   7149.67  4.9654348E-01
   7150.00  4.9879644E-01
   7150.33  5.0118069E-01
   7150.67  5.0374243E-01
   7151.00  5.0657364E-01
   7151.33  5.0984025E-01
   7151.67  5.1359297E-01
   7152.00  5.1788709E-01
   7152.33  5.2281718E-01
   7152.67  5.2829049E-01
   7153.00  5.3425077E-01
   7153.33  5.4064180E-01
   7153.67  5.4728075E-01
   7154.00  5.5403422E-01
   7154.33  5.6073116E-01
   7154.67  5.6721662E-01
   7155.00  5.7336539E-01
   7155.33  5.7900015E-01
   7155.67  5.8409186E-01
   7156.00  5.8859544E-01
   7156.33  5.9241506E-01
   7156.67  5.9563673E-01
   7157.00  5.9828701E-01
   7157.33  6.0034532E-01
   7157.67  6.0193078E-01
   7158.00  6.0309036E-01
   7158.33  6.0382824E-01
   7158.67  6.0423429E-01
   7159.00  6.0433709E-01
   7159.33  6.0412406E-01
   7159.67  6.0364127E-01
   7160.00  6.0288978E-01
   7160.33  6.0182850E-01
   7160.67  6.0047937E-01
   7161.00  5.9882909E-01
   7161.33  5.9682118E-01
   7161.67  5.9447858E-01
   7162.00  5.9178758E-01
   7162.33  5.8869123E-01
   7162.67  5.8522881E-01
   7163.00  5.8139606E-01
   7163.33  5.7714243E-01
   7163.67  5.7251785E-01
   7164.00  5.6753273E-01
   7164.33  5.6216689E-01
   7164.67  5.5649850E-01
   7165.00  5.5057023E-01
   7165.33  5.4442045E-01
   7165.67  5.3814980E-01
   7166.00  5.3183031E-01
   7166.33  5.2555151E-01
   7166.67  5.1938912E-01
   7167.00  5.1340321E-01
   7167.33  5.0767686E-01
   7167.67  5.0221657E-01
   7168.00  4.9703822E-01
   7168.33  4.9218057E-01
   7168.67  4.8759620E-01
   7169.00  4.8326579E-01
   7169.33  4.7919074E-01
   7169.67  4.7531841E-01
   7170.00  4.7163546E-01
   7170.33  4.6815330E-01
   7170.67  4.6484613E-01
   7171.00  4.6172584E-01
   7171.33  4.5886530E-01
   7171.67  4.5633352E-01
   7172.00  4.5426456E-01
