    FDMNES
    energy     <xanes>
   7097.00  5.1842402E-03
   7097.33  5.3090304E-03
   7097.67  5.4396321E-03
   7098.00  5.5764497E-03
   7098.33  5.7208471E-03
   7098.67  5.8725648E-03
   7099.00  6.0321580E-03
   7099.33  6.2014237E-03
   7099.67  6.3801021E-03
   7100.00  6.5689767E-03
   7100.33  6.7704806E-03
   7100.67  6.9843851E-03
   7101.00  7.2118326E-03
   7101.33  7.4562247E-03
   7101.67  7.7174351E-03
   7102.00  7.9971939E-03
   7102.33  8.3004460E-03
   7102.67  8.6273239E-03
   7103.00  8.9805738E-03
   7103.33  9.3677343E-03
   7103.67  9.7895579E-03
   7104.00  1.0250662E-02
   7104.33  1.0763247E-02
   7104.67  1.1329565E-02
   7105.00  1.1957968E-02
   7105.33  1.2669789E-02
   7105.67  1.3471107E-02
   7106.00  1.4378558E-02
   7106.33  1.5433518E-02
   7106.67  1.6652877E-02
   7107.00  1.8074472E-02
   7107.33  1.9791171E-02
   7107.67  2.1855778E-02
   7108.00  2.4372766E-02
   7108.33  2.7601923E-02
   7108.67  3.1750355E-02
   7109.00  3.7209357E-02
   7109.33  4.5018940E-02
   7109.67  5.6385550E-02
   7110.00  7.3691945E-02
   7110.33  1.0389970E-01
   7110.67  1.5466823E-01
   7111.00  2.2529447E-01
   7111.33  2.6785857E-01
   7111.67  2.7640612E-01
   7112.00  2.9509037E-01
   7112.33  3.4426451E-01
   7112.67  4.0833994E-01
   7113.00  4.4972937E-01
   7113.33  4.0133423E-01
   7113.67  3.2035666E-01
   7114.00  2.4837977E-01
   7114.33  2.0751868E-01
   7114.67  1.9662281E-01
   7115.00  2.1218498E-01
   7115.33  2.4941778E-01
   7115.67  2.8751714E-01
   7116.00  3.0272159E-01
   7116.33  2.7849165E-01
   7116.67  2.3841814E-01
   7117.00  2.0138020E-01
   7117.33  1.7581915E-01
   7117.67  1.5920207E-01
   7118.00  1.4914723E-01
   7118.33  1.4406836E-01
   7118.67  1.4253440E-01
   7119.00  1.4363653E-01
   7119.33  1.4575587E-01
   7119.67  1.4846297E-01
   7120.00  1.5254179E-01
   7120.33  1.5876176E-01
   7120.67  1.6689523E-01
   7121.00  1.7645503E-01
   7121.33  1.8531173E-01
   7121.67  1.9003414E-01
   7122.00  1.8908085E-01
   7122.33  1.8423621E-01
   7122.67  1.7961483E-01
   7123.00  1.7735644E-01
   7123.33  1.7924069E-01
   7123.67  1.8532267E-01
   7124.00  1.9559851E-01
   7124.33  2.1026111E-01
   7124.67  2.2832504E-01
   7125.00  2.4935254E-01
   7125.33  2.7361939E-01
   7125.67  3.0099904E-01
   7126.00  3.3100681E-01
   7126.33  3.6179372E-01
   7126.67  3.9131281E-01
   7127.00  4.1891723E-01
   7127.33  4.4410003E-01
   7127.67  4.6712766E-01
   7128.00  4.8891286E-01
   7128.33  5.1170471E-01
   7128.67  5.3732514E-01
   7129.00  5.6621279E-01
   7129.33  5.9740518E-01
   7129.67  6.2835189E-01
   7130.00  6.5722122E-01
   7130.33  6.8279348E-01
   7130.67  7.0635852E-01
   7131.00  7.2933241E-01
   7131.33  7.5226218E-01
   7131.67  7.7416890E-01
   7132.00  7.9390118E-01
   7132.33  8.1035570E-01
   7132.67  8.2394085E-01
   7133.00  8.3507132E-01
   7133.33  8.4409750E-01
   7133.67  8.5170444E-01
   7134.00  8.5799290E-01
   7134.33  8.6227534E-01
   7134.67  8.6355952E-01
   7135.00  8.6035758E-01
   7135.33  8.5015205E-01
   7135.67  8.3260131E-01
   7136.00  8.0761257E-01
   7136.33  7.7544710E-01
   7136.67  7.3903391E-01
   7137.00  7.0070725E-01
   7137.33  6.6335316E-01
   7137.67  6.2921017E-01
   7138.00  5.9966784E-01
   7138.33  5.7621314E-01
   7138.67  5.5825040E-01
   7139.00  5.4542798E-01
   7139.33  5.3759903E-01
   7139.67  5.3339047E-01
   7140.00  5.3213457E-01
   7140.33  5.3343358E-01
   7140.67  5.3642844E-01
   7141.00  5.4070459E-01
   7141.33  5.4599328E-01
   7141.67  5.5193738E-01
   7142.00  5.5843728E-01
   7142.33  5.6548782E-01
   7142.67  5.7284244E-01
   7143.00  5.8009305E-01
   7143.33  5.8625451E-01
   7143.67  5.9026742E-01
   7144.00  5.9112389E-01
   7144.33  5.8758591E-01
   7144.67  5.8014920E-01
   7145.00  5.6947382E-01
   7145.33  5.5661188E-01
   7145.67  5.4324117E-01
   7146.00  5.3040600E-01
   7146.33  5.1909956E-01
   7146.67  5.0954938E-01
   7147.00  5.0181462E-01
   7147.33  4.9595280E-01
   7147.67  4.9148157E-01
   7148.00  4.8815021E-01
   7148.33  4.8582240E-01
   7148.67  4.8421417E-01
   7149.00  4.8323859E-01
   7149.33  4.8292124E-01
   7149.67  4.8317834E-01
   7150.00  4.8401555E-01
   7150.33  4.8551494E-01
   7150.67  4.8760208E-01
   7151.00  4.9026456E-01
   7151.33  4.9353819E-01
   7151.67  4.9730056E-01
   7152.00  5.0148723E-01
   7152.33  5.0605018E-01
   7152.67  5.1084969E-01
   7153.00  5.1580201E-01
   7153.33  5.2082412E-01
   7153.67  5.2582858E-01
   7154.00  5.3075773E-01
   7154.33  5.3554395E-01
   7154.67  5.4016710E-01
   7155.00  5.4460683E-01
   7155.33  5.4882530E-01
   7155.67  5.5284350E-01
   7156.00  5.5666557E-01
   7156.33  5.6028324E-01
   7156.67  5.6374451E-01
   7157.00  5.6707903E-01
   7157.33  5.7031698E-01
   7157.67  5.7351020E-01
   7158.00  5.7668761E-01
   7158.33  5.7986898E-01
   7158.67  5.8305177E-01
   7159.00  5.8621499E-01
   7159.33  5.8930414E-01
   7159.67  5.9225834E-01
   7160.00  5.9500351E-01
   7160.33  5.9740597E-01
   7160.67  5.9940472E-01
   7161.00  6.0091893E-01
   7161.33  6.0179348E-01
   7161.67  6.0202060E-01
   7162.00  6.0153828E-01
   7162.33  6.0019201E-01
   7162.67  5.9803798E-01
   7163.00  5.9505863E-01
   7163.33  5.9115107E-01
   7163.67  5.8644284E-01
   7164.00  5.8097453E-01
   7164.33  5.7472980E-01
   7164.67  5.6788924E-01
   7165.00  5.6055081E-01
   7165.33  5.5279607E-01
   7165.67  5.4480637E-01
   7166.00  5.3669547E-01
   7166.33  5.2858356E-01
   7166.67  5.2057236E-01
   7167.00  5.1273126E-01
   7167.33  5.0514735E-01
   7167.67  4.9782942E-01
   7168.00  4.9079677E-01
   7168.33  4.8409763E-01
   7168.67  4.7769828E-01
   7169.00  4.7160085E-01
   7169.33  4.6584423E-01
   7169.67  4.6038499E-01
   7170.00  4.5521795E-01
   7170.33  4.5037810E-01
   7170.67  4.4583677E-01
   7171.00  4.4161380E-01
   7171.33  4.3780832E-01
   7171.67  4.3448531E-01
   7172.00  4.3179561E-01
