    FDMNES
    energy     <xanes>
   7097.00  4.1689306E-03
   7097.33  4.2490293E-03
   7097.67  4.3320122E-03
   7098.00  4.4180404E-03
   7098.33  4.5077254E-03
   7098.67  4.6008865E-03
   7099.00  4.6977359E-03
   7099.33  4.7990412E-03
   7099.67  4.9046099E-03
   7100.00  5.0147292E-03
   7100.33  5.1303868E-03
   7100.67  5.2513859E-03
   7101.00  5.3781282E-03
   7101.33  5.5119247E-03
   7101.67  5.6525923E-03
   7102.00  5.8007157E-03
   7102.33  5.9581028E-03
   7102.67  6.1246272E-03
   7103.00  6.3011822E-03
   7103.33  6.4903853E-03
   7103.67  6.6922668E-03
   7104.00  6.9082773E-03
   7104.33  7.1424497E-03
   7104.67  7.3952173E-03
   7105.00  7.6691246E-03
   7105.33  7.9709111E-03
   7105.67  8.3020674E-03
   7106.00  8.6675276E-03
   7106.33  9.0798482E-03
   7106.67  9.5435304E-03
   7107.00  1.0069530E-02
   7107.33  1.0685056E-02
   7107.67  1.1404550E-02
   7108.00  1.2257542E-02
   7108.33  1.3317662E-02
   7108.67  1.4641267E-02
   7109.00  1.6335743E-02
   7109.33  1.8685010E-02
   7109.67  2.2008611E-02
   7110.00  2.6934002E-02
   7110.33  3.5255135E-02
   7110.67  4.8740112E-02
   7111.00  6.7234995E-02
   7111.33  8.5354148E-02
   7111.67  1.0145192E-01
   7112.00  1.1300223E-01
   7112.33  1.1599731E-01
   7112.67  1.1744951E-01
   7113.00  1.2070899E-01
   7113.33  1.1912361E-01
   7113.67  1.0497930E-01
   7114.00  8.5095022E-02
   7114.33  6.7847100E-02
   7114.67  5.5033941E-02
   7115.00  4.7270419E-02
   7115.33  4.3735890E-02
   7115.67  4.2690128E-02
   7116.00  4.3494792E-02
   7116.33  4.5829477E-02
   7116.67  4.9198120E-02
   7117.00  5.3529963E-02
   7117.33  5.9031770E-02
   7117.67  6.5517964E-02
   7118.00  7.2846240E-02
   7118.33  8.1611380E-02
   7118.67  9.2889618E-02
   7119.00  1.0756983E-01
   7119.33  1.2617774E-01
   7119.67  1.4720662E-01
   7120.00  1.6889451E-01
   7120.33  1.8879117E-01
   7120.67  2.0608161E-01
   7121.00  2.2128343E-01
   7121.33  2.3528963E-01
   7121.67  2.4874459E-01
   7122.00  2.6225085E-01
   7122.33  2.7732057E-01
   7122.67  2.9410025E-01
   7123.00  3.1183791E-01
   7123.33  3.3062706E-01
   7123.67  3.5139959E-01
   7124.00  3.7364848E-01
   7124.33  3.9239236E-01
   7124.67  4.0363814E-01
   7125.00  4.0946102E-01
   7125.33  4.1677605E-01
   7125.67  4.2995016E-01
   7126.00  4.4991733E-01
   7126.33  4.7686947E-01
   7126.67  5.0812471E-01
   7127.00  5.4147838E-01
   7127.33  5.7646765E-01
   7127.67  6.1412241E-01
   7128.00  6.5469599E-01
   7128.33  6.9749588E-01
   7128.67  7.4002293E-01
   7129.00  7.7837100E-01
   7129.33  8.0668148E-01
   7129.67  8.2531929E-01
   7130.00  8.3607827E-01
   7130.33  8.3961286E-01
   7130.67  8.3677233E-01
   7131.00  8.2745645E-01
   7131.33  8.1227541E-01
   7131.67  7.9496990E-01
   7132.00  7.7864474E-01
   7132.33  7.6612999E-01
   7132.67  7.5708341E-01
   7133.00  7.5000806E-01
   7133.33  7.4295586E-01
   7133.67  7.3522334E-01
   7134.00  7.2713846E-01
   7134.33  7.1880489E-01
   7134.67  7.0940642E-01
   7135.00  6.9829996E-01
   7135.33  6.8587847E-01
   7135.67  6.7356612E-01
   7136.00  6.6224563E-01
   7136.33  6.5276133E-01
   7136.67  6.4525851E-01
   7137.00  6.3980538E-01
   7137.33  6.3642066E-01
   7137.67  6.3445655E-01
   7138.00  6.3355247E-01
   7138.33  6.3354013E-01
   7138.67  6.3417938E-01
   7139.00  6.3527066E-01
   7139.33  6.3633655E-01
   7139.67  6.3676008E-01
   7140.00  6.3609634E-01
   7140.33  6.3393519E-01
   7140.67  6.3049705E-01
   7141.00  6.2600122E-01
   7141.33  6.2074885E-01
   7141.67  6.1526111E-01
   7142.00  6.0983965E-01
   7142.33  6.0461122E-01
   7142.67  5.9930583E-01
   7143.00  5.9345225E-01
   7143.33  5.8618565E-01
   7143.67  5.7700995E-01
   7144.00  5.6559065E-01
   7144.33  5.5166082E-01
   7144.67  5.3594910E-01
   7145.00  5.1909662E-01
   7145.33  5.0192538E-01
   7145.67  4.8526064E-01
   7146.00  4.6962878E-01
   7146.33  4.5560935E-01
   7146.67  4.4322361E-01
   7147.00  4.3253139E-01
   7147.33  4.2374510E-01
   7147.67  4.1663872E-01
   7148.00  4.1120169E-01
   7148.33  4.0761608E-01
   7148.67  4.0564051E-01
   7149.00  4.0523756E-01
   7149.33  4.0652245E-01
   7149.67  4.0916582E-01
   7150.00  4.1296605E-01
   7150.33  4.1770923E-01
   7150.67  4.2290490E-01
   7151.00  4.2818347E-01
   7151.33  4.3305730E-01
   7151.67  4.3716743E-01
   7152.00  4.4023382E-01
   7152.33  4.4188569E-01
   7152.67  4.4219857E-01
   7153.00  4.4119134E-01
   7153.33  4.3880784E-01
   7153.67  4.3535066E-01
   7154.00  4.3097000E-01
   7154.33  4.2575106E-01
   7154.67  4.1995596E-01
   7155.00  4.1372008E-01
   7155.33  4.0714918E-01
   7155.67  4.0040851E-01
   7156.00  3.9359935E-01
   7156.33  3.8683413E-01
   7156.67  3.8020075E-01
   7157.00  3.7376089E-01
   7157.33  3.6758624E-01
   7157.67  3.6165819E-01
   7158.00  3.5596594E-01
   7158.33  3.5050805E-01
   7158.67  3.4522877E-01
   7159.00  3.4011553E-01
   7159.33  3.3520434E-01
   7159.67  3.3052312E-01
   7160.00  3.2614160E-01
   7160.33  3.2220544E-01
   7160.67  3.1875934E-01
   7161.00  3.1587069E-01
   7161.33  3.1367015E-01
   7161.67  3.1210363E-01
   7162.00  3.1116519E-01
   7162.33  3.1090049E-01
   7162.67  3.1119178E-01
   7163.00  3.1199883E-01
   7163.33  3.1333574E-01
   7163.67  3.1510705E-01
   7164.00  3.1729250E-01
   7164.33  3.1993306E-01
   7164.67  3.2298140E-01
   7165.00  3.2644735E-01
   7165.33  3.3039981E-01
   7165.67  3.3479681E-01
   7166.00  3.3964136E-01
   7166.33  3.4497912E-01
   7166.67  3.5073004E-01
   7167.00  3.5685958E-01
   7167.33  3.6335632E-01
   7167.67  3.7011860E-01
   7168.00  3.7709165E-01
   7168.33  3.8423133E-01
   7168.67  3.9145881E-01
   7169.00  3.9872725E-01
   7169.33  4.0599007E-01
   7169.67  4.1320894E-01
   7170.00  4.2035212E-01
   7170.33  4.2736381E-01
   7170.67  4.3420192E-01
   7171.00  4.4079198E-01
   7171.33  4.4693803E-01
   7171.67  4.5242229E-01
   7172.00  4.5689837E-01
