    FDMNES
    energy     <xanes>
   7097.00  4.8227981E-03
   7097.33  4.9364602E-03
   7097.67  5.0552138E-03
   7098.00  5.1793986E-03
   7098.33  5.3101850E-03
   7098.67  5.4473249E-03
   7099.00  5.5912793E-03
   7099.33  5.7435713E-03
   7099.67  5.9039441E-03
   7100.00  6.0730387E-03
   7100.33  6.2528875E-03
   7100.67  6.4432453E-03
   7101.00  6.6450301E-03
   7101.33  6.8610345E-03
   7101.67  7.0910704E-03
   7102.00  7.3364990E-03
   7102.33  7.6012937E-03
   7102.67  7.8854240E-03
   7103.00  8.1909938E-03
   7103.33  8.5239008E-03
   7103.67  8.8844968E-03
   7104.00  9.2762032E-03
   7104.33  9.7082423E-03
   7104.67  1.0181875E-02
   7105.00  1.0703029E-02
   7105.33  1.1287109E-02
   7105.67  1.1937612E-02
   7106.00  1.2665673E-02
   7106.33  1.3499364E-02
   7106.67  1.4448097E-02
   7107.00  1.5535231E-02
   7107.33  1.6818396E-02
   7107.67  1.8324842E-02
   7108.00  2.0111919E-02
   7108.33  2.2320756E-02
   7108.67  2.5044898E-02
   7109.00  2.8464356E-02
   7109.33  3.3039293E-02
   7109.67  3.9212806E-02
   7110.00  4.7839188E-02
   7110.33  6.1319366E-02
   7110.67  8.2523690E-02
   7111.00  1.1476647E-01
   7111.33  1.5899775E-01
   7111.67  2.1368343E-01
   7112.00  2.6879604E-01
   7112.33  2.9526364E-01
   7112.67  3.2281130E-01
   7113.00  3.7089166E-01
   7113.33  4.2855484E-01
   7113.67  4.8921270E-01
   7114.00  5.1235324E-01
   7114.33  4.3459055E-01
   7114.67  3.1999620E-01
   7115.00  2.2898188E-01
   7115.33  1.8067507E-01
   7115.67  1.6236983E-01
   7116.00  1.6900911E-01
   7116.33  1.9185046E-01
   7116.67  1.9359949E-01
   7117.00  1.5912606E-01
   7117.33  1.2162129E-01
   7117.67  9.7518378E-02
   7118.00  8.4297063E-02
   7118.33  7.8845227E-02
   7118.67  7.8188278E-02
   7119.00  8.1364979E-02
   7119.33  8.7186026E-02
   7119.67  9.3618833E-02
   7120.00  1.0062646E-01
   7120.33  1.0785216E-01
   7120.67  1.1320939E-01
   7121.00  1.1626368E-01
   7121.33  1.1768331E-01
   7121.67  1.1967294E-01
   7122.00  1.2441450E-01
   7122.33  1.3348181E-01
   7122.67  1.4591230E-01
   7123.00  1.6127050E-01
   7123.33  1.8061984E-01
   7123.67  2.0466116E-01
   7124.00  2.3363322E-01
   7124.33  2.6667064E-01
   7124.67  2.9935772E-01
   7125.00  3.2542819E-01
   7125.33  3.3713074E-01
   7125.67  3.4068464E-01
   7126.00  3.4575035E-01
   7126.33  3.5800181E-01
   7126.67  3.7474884E-01
   7127.00  3.9323127E-01
   7127.33  4.1075424E-01
   7127.67  4.2650332E-01
   7128.00  4.4140621E-01
   7128.33  4.5808461E-01
   7128.67  4.7932978E-01
   7129.00  5.0769950E-01
   7129.33  5.4703256E-01
   7129.67  5.9776735E-01
   7130.00  6.6002948E-01
   7130.33  7.3372159E-01
   7130.67  8.1503328E-01
   7131.00  9.0012642E-01
   7131.33  9.7894280E-01
   7131.67  1.0366635E+00
   7132.00  1.0606968E+00
   7132.33  1.0442682E+00
   7132.67  1.0043278E+00
   7133.00  9.5518971E-01
   7133.33  9.0873602E-01
   7133.67  8.6832789E-01
   7134.00  8.3246875E-01
   7134.33  7.9805820E-01
   7134.67  7.6357622E-01
   7135.00  7.3025510E-01
   7135.33  7.0120061E-01
   7135.67  6.7789718E-01
   7136.00  6.6085878E-01
   7136.33  6.5032901E-01
   7136.67  6.4453649E-01
   7137.00  6.4250563E-01
   7137.33  6.4361152E-01
   7137.67  6.4680836E-01
   7138.00  6.5172495E-01
   7138.33  6.5833898E-01
   7138.67  6.6642447E-01
   7139.00  6.7602621E-01
   7139.33  6.8739189E-01
   7139.67  7.0025274E-01
   7140.00  7.1431298E-01
   7140.33  7.2884126E-01
   7140.67  7.4245294E-01
   7141.00  7.5364714E-01
   7141.33  7.6002415E-01
   7141.67  7.6051597E-01
   7142.00  7.5417735E-01
   7142.33  7.3964912E-01
   7142.67  7.1828886E-01
   7143.00  6.9132792E-01
   7143.33  6.6055960E-01
   7143.67  6.2881565E-01
   7144.00  5.9782600E-01
   7144.33  5.6921856E-01
   7144.67  5.4343208E-01
   7145.00  5.2061829E-01
   7145.33  5.0094786E-01
   7145.67  4.8374619E-01
   7146.00  4.6871713E-01
   7146.33  4.5578308E-01
   7146.67  4.4448878E-01
   7147.00  4.3473034E-01
   7147.33  4.2666636E-01
   7147.67  4.2015247E-01
   7148.00  4.1525571E-01
   7148.33  4.1225783E-01
   7148.67  4.1096829E-01
   7149.00  4.1130615E-01
   7149.33  4.1320548E-01
   7149.67  4.1615493E-01
   7150.00  4.1979953E-01
   7150.33  4.2373270E-01
   7150.67  4.2753385E-01
   7151.00  4.3095025E-01
   7151.33  4.3373215E-01
   7151.67  4.3588712E-01
   7152.00  4.3743274E-01
   7152.33  4.3837602E-01
   7152.67  4.3889045E-01
   7153.00  4.3908135E-01
   7153.33  4.3905747E-01
   7153.67  4.3898342E-01
   7154.00  4.3898555E-01
   7154.33  4.3924187E-01
   7154.67  4.3986682E-01
   7155.00  4.4096683E-01
   7155.33  4.4270554E-01
   7155.67  4.4505880E-01
   7156.00  4.4802382E-01
   7156.33  4.5161525E-01
   7156.67  4.5565610E-01
   7157.00  4.6001739E-01
   7157.33  4.6453173E-01
   7157.67  4.6897219E-01
   7158.00  4.7314859E-01
   7158.33  4.7678197E-01
   7158.67  4.7973462E-01
   7159.00  4.8186783E-01
   7159.33  4.8295814E-01
   7159.67  4.8308606E-01
   7160.00  4.8228424E-01
   7160.33  4.8055709E-01
   7160.67  4.7817215E-01
   7161.00  4.7529642E-01
   7161.33  4.7209017E-01
   7161.67  4.6876445E-01
   7162.00  4.6543672E-01
   7162.33  4.6220961E-01
   7162.67  4.5910773E-01
   7163.00  4.5612365E-01
   7163.33  4.5323228E-01
   7163.67  4.5035519E-01
   7164.00  4.4741036E-01
   7164.33  4.4429624E-01
   7164.67  4.4098092E-01
   7165.00  4.3744135E-01
   7165.33  4.3364491E-01
   7165.67  4.2963887E-01
   7166.00  4.2545435E-01
   7166.33  4.2112338E-01
   7166.67  4.1671633E-01
   7167.00  4.1227955E-01
   7167.33  4.0786737E-01
   7167.67  4.0352534E-01
   7168.00  3.9929152E-01
   7168.33  3.9522411E-01
   7168.67  3.9133968E-01
   7169.00  3.8766341E-01
   7169.33  3.8424488E-01
   7169.67  3.8106610E-01
   7170.00  3.7812910E-01
   7170.33  3.7546009E-01
   7170.67  3.7302310E-01
   7171.00  3.7081529E-01
   7171.33  3.6887409E-01
   7171.67  3.6720365E-01
   7172.00  3.6585830E-01
