    FDMNES
    energy     <xanes>
   7097.00  4.0138896E-03
   7097.33  4.0890716E-03
   7097.67  4.1669484E-03
   7098.00  4.2476750E-03
   7098.33  4.3318307E-03
   7098.67  4.4192542E-03
   7099.00  4.5101526E-03
   7099.33  4.6052616E-03
   7099.67  4.7044126E-03
   7100.00  4.8078914E-03
   7100.33  4.9166587E-03
   7100.67  5.0305495E-03
   7101.00  5.1499721E-03
   7101.33  5.2762259E-03
   7101.67  5.4091734E-03
   7102.00  5.5494244E-03
   7102.33  5.6988140E-03
   7102.67  5.8572876E-03
   7103.00  6.0258051E-03
   7103.33  6.2071029E-03
   7103.67  6.4013391E-03
   7104.00  6.6101264E-03
   7104.33  6.8378347E-03
   7104.67  7.0851579E-03
   7105.00  7.3550365E-03
   7105.33  7.6550905E-03
   7105.67  7.9874261E-03
   7106.00  8.3580004E-03
   7106.33  8.7817343E-03
   7106.67  9.2648373E-03
   7107.00  9.8212133E-03
   7107.33  1.0485116E-02
   7107.67  1.1276758E-02
   7108.00  1.2235848E-02
   7108.33  1.3461538E-02
   7108.67  1.5035898E-02
   7109.00  1.7113568E-02
   7109.33  2.0108391E-02
   7109.67  2.4513833E-02
   7110.00  3.1302853E-02
   7110.33  4.3259233E-02
   7110.67  6.2829065E-02
   7111.00  8.8131859E-02
   7111.33  1.0862624E-01
   7111.67  1.2330357E-01
   7112.00  1.3234090E-01
   7112.33  1.2794290E-01
   7112.67  1.0953474E-01
   7113.00  8.7576244E-02
   7113.33  7.0906214E-02
   7113.67  6.0083267E-02
   7114.00  5.3624411E-02
   7114.33  4.8738707E-02
   7114.67  4.3667688E-02
   7115.00  3.9470630E-02
   7115.33  3.7191461E-02
   7115.67  3.6347282E-02
   7116.00  3.6495117E-02
   7116.33  3.7262982E-02
   7116.67  3.8374224E-02
   7117.00  3.9943153E-02
   7117.33  4.2388630E-02
   7117.67  4.5860958E-02
   7118.00  5.0421572E-02
   7118.33  5.6048715E-02
   7118.67  6.2199824E-02
   7119.00  6.8303552E-02
   7119.33  7.3553868E-02
   7119.67  7.7598793E-02
   7120.00  8.0517820E-02
   7120.33  8.2948136E-02
   7120.67  8.5890687E-02
   7121.00  9.0067355E-02
   7121.33  9.6452705E-02
   7121.67  1.0554864E-01
   7122.00  1.1808254E-01
   7122.33  1.3546253E-01
   7122.67  1.5761531E-01
   7123.00  1.8392564E-01
   7123.33  2.1134881E-01
   7123.67  2.3399011E-01
   7124.00  2.4905674E-01
   7124.33  2.6015729E-01
   7124.67  2.7375425E-01
   7125.00  2.9202623E-01
   7125.33  3.1565190E-01
   7125.67  3.4262360E-01
   7126.00  3.7085322E-01
   7126.33  3.9870780E-01
   7126.67  4.2742836E-01
   7127.00  4.5982937E-01
   7127.33  4.9912770E-01
   7127.67  5.4398335E-01
   7128.00  5.9218521E-01
   7128.33  6.4121665E-01
   7128.67  6.8904174E-01
   7129.00  7.3436805E-01
   7129.33  7.7546730E-01
   7129.67  8.1173020E-01
   7130.00  8.4214779E-01
   7130.33  8.6402945E-01
   7130.67  8.7633919E-01
   7131.00  8.7867760E-01
   7131.33  8.7279781E-01
   7131.67  8.6454513E-01
   7132.00  8.5782420E-01
   7132.33  8.5561251E-01
   7132.67  8.5769335E-01
   7133.00  8.6352747E-01
   7133.33  8.7316138E-01
   7133.67  8.8611828E-01
   7134.00  9.0197938E-01
   7134.33  9.1931141E-01
   7134.67  9.3541713E-01
   7135.00  9.4802918E-01
   7135.33  9.5408505E-01
   7135.67  9.5252678E-01
   7136.00  9.4259182E-01
   7136.33  9.2361721E-01
   7136.67  8.9816235E-01
   7137.00  8.6813272E-01
   7137.33  8.3554808E-01
   7137.67  8.0265396E-01
   7138.00  7.7070233E-01
   7138.33  7.4088555E-01
   7138.67  7.1347937E-01
   7139.00  6.8866963E-01
   7139.33  6.6680763E-01
   7139.67  6.4746569E-01
   7140.00  6.3050529E-01
   7140.33  6.1600776E-01
   7140.67  6.0349232E-01
   7141.00  5.9277587E-01
   7141.33  5.8383394E-01
   7141.67  5.7624189E-01
   7142.00  5.6981252E-01
   7142.33  5.6444365E-01
   7142.67  5.5977855E-01
   7143.00  5.5561266E-01
   7143.33  5.5175870E-01
   7143.67  5.4799114E-01
   7144.00  5.4418079E-01
   7144.33  5.4020497E-01
   7144.67  5.3602750E-01
   7145.00  5.3163730E-01
   7145.33  5.2703210E-01
   7145.67  5.2228873E-01
   7146.00  5.1747437E-01
   7146.33  5.1269209E-01
   7146.67  5.0805502E-01
   7147.00  5.0366980E-01
   7147.33  4.9970241E-01
   7147.67  4.9620589E-01
   7148.00  4.9323880E-01
   7148.33  4.9090051E-01
   7148.67  4.8910562E-01
   7149.00  4.8780596E-01
   7149.33  4.8697051E-01
   7149.67  4.8645526E-01
   7150.00  4.8617321E-01
   7150.33  4.8603286E-01
   7150.67  4.8591059E-01
   7151.00  4.8571564E-01
   7151.33  4.8532491E-01
   7151.67  4.8466668E-01
   7152.00  4.8366618E-01
   7152.33  4.8218545E-01
   7152.67  4.8019306E-01
   7153.00  4.7761227E-01
   7153.33  4.7427399E-01
   7153.67  4.7019001E-01
   7154.00  4.6530414E-01
   7154.33  4.5945198E-01
   7154.67  4.5270070E-01
   7155.00  4.4503468E-01
   7155.33  4.3634861E-01
   7155.67  4.2679576E-01
   7156.00  4.1643741E-01
   7156.33  4.0528708E-01
   7156.67  3.9356346E-01
   7157.00  3.8139757E-01
   7157.33  3.6892240E-01
   7157.67  3.5635375E-01
   7158.00  3.4386084E-01
   7158.33  3.3168614E-01
   7158.67  3.2000229E-01
   7159.00  3.0898250E-01
   7159.33  2.9892047E-01
   7159.67  2.8987421E-01
   7160.00  2.8196148E-01
   7160.33  2.7544151E-01
   7160.67  2.7022597E-01
   7161.00  2.6634327E-01
   7161.33  2.6396272E-01
   7161.67  2.6288302E-01
   7162.00  2.6304258E-01
   7162.33  2.6447930E-01
   7162.67  2.6691900E-01
   7163.00  2.7024041E-01
   7163.33  2.7438603E-01
   7163.67  2.7911939E-01
   7164.00  2.8432781E-01
   7164.33  2.8994034E-01
   7164.67  2.9581481E-01
   7165.00  3.0188317E-01
   7165.33  3.0809994E-01
   7165.67  3.1440324E-01
   7166.00  3.2076586E-01
   7166.33  3.2717341E-01
   7166.67  3.3361291E-01
   7167.00  3.4008550E-01
   7167.33  3.4660424E-01
   7167.67  3.5317773E-01
   7168.00  3.5982101E-01
   7168.33  3.6656328E-01
   7168.67  3.7340734E-01
   7169.00  3.8035711E-01
   7169.33  3.8741528E-01
   7169.67  3.9454076E-01
   7170.00  4.0169032E-01
   7170.33  4.0878484E-01
   7170.67  4.1573049E-01
   7171.00  4.2241454E-01
   7171.33  4.2860025E-01
   7171.67  4.3406645E-01
   7172.00  4.3848904E-01
