    FDMNES
    energy     <xanes>
   7097.00  4.9123941E-03
   7097.33  5.0308969E-03
   7097.67  5.1549134E-03
   7098.00  5.2848297E-03
   7098.33  5.4219447E-03
   7098.67  5.5660167E-03
   7099.00  5.7175783E-03
   7099.33  5.8783467E-03
   7099.67  6.0480830E-03
   7100.00  6.2275427E-03
   7100.33  6.4190604E-03
   7100.67  6.6224332E-03
   7101.00  6.8387690E-03
   7101.33  7.0713491E-03
   7101.67  7.3200795E-03
   7102.00  7.5866496E-03
   7102.33  7.8758599E-03
   7102.67  8.1878864E-03
   7103.00  8.5254304E-03
   7103.33  8.8958653E-03
   7103.67  9.3000069E-03
   7104.00  9.7424329E-03
   7104.33  1.0235176E-02
   7104.67  1.0780590E-02
   7105.00  1.1387018E-02
   7105.33  1.2075677E-02
   7105.67  1.2852827E-02
   7106.00  1.3735190E-02
   7106.33  1.4764202E-02
   7106.67  1.5957086E-02
   7107.00  1.7351951E-02
   7107.33  1.9042057E-02
   7107.67  2.1080553E-02
   7108.00  2.3572013E-02
   7108.33  2.6775460E-02
   7108.67  3.0894698E-02
   7109.00  3.6313026E-02
   7109.33  4.4040874E-02
   7109.67  5.5220588E-02
   7110.00  7.2087248E-02
   7110.33  1.0104895E-01
   7110.67  1.4873253E-01
   7111.00  2.1580274E-01
   7111.33  2.8058791E-01
   7111.67  3.3290120E-01
   7112.00  3.8600955E-01
   7112.33  4.3121875E-01
   7112.67  4.4251571E-01
   7113.00  3.9744245E-01
   7113.33  3.0512431E-01
   7113.67  2.2572065E-01
   7114.00  1.7453460E-01
   7114.33  1.5022325E-01
   7114.67  1.4472523E-01
   7115.00  1.5512789E-01
   7115.33  1.7042555E-01
   7115.67  1.6700040E-01
   7116.00  1.4257740E-01
   7116.33  1.1674469E-01
   7116.67  9.8913936E-02
   7117.00  8.8649759E-02
   7117.33  8.4514008E-02
   7117.67  8.3845584E-02
   7118.00  8.5124696E-02
   7118.33  8.7431792E-02
   7118.67  9.0835424E-02
   7119.00  9.5574720E-02
   7119.33  1.0098327E-01
   7119.67  1.0574643E-01
   7120.00  1.0944305E-01
   7120.33  1.1328308E-01
   7120.67  1.1930905E-01
   7121.00  1.2868446E-01
   7121.33  1.4205698E-01
   7121.67  1.5858505E-01
   7122.00  1.7826873E-01
   7122.33  2.0185241E-01
   7122.67  2.2814663E-01
   7123.00  2.5531972E-01
   7123.33  2.8251386E-01
   7123.67  3.1128535E-01
   7124.00  3.4173567E-01
   7124.33  3.7038491E-01
   7124.67  3.9313539E-01
   7125.00  4.0798286E-01
   7125.33  4.1535196E-01
   7125.67  4.1994248E-01
   7126.00  4.2542621E-01
   7126.33  4.3574510E-01
   7126.67  4.5202577E-01
   7127.00  4.7424255E-01
   7127.33  5.0186155E-01
   7127.67  5.3297827E-01
   7128.00  5.6664926E-01
   7128.33  6.0104645E-01
   7128.67  6.3309281E-01
   7129.00  6.6173838E-01
   7129.33  6.9023820E-01
   7129.67  7.2228719E-01
   7130.00  7.5621296E-01
   7130.33  7.8486991E-01
   7130.67  8.0322859E-01
   7131.00  8.0984936E-01
   7131.33  8.0468756E-01
   7131.67  7.9185738E-01
   7132.00  7.7462888E-01
   7132.33  7.5701600E-01
   7132.67  7.4192057E-01
   7133.00  7.3042867E-01
   7133.33  7.2338286E-01
   7133.67  7.2031399E-01
   7134.00  7.2090977E-01
   7134.33  7.2419986E-01
   7134.67  7.2782012E-01
   7135.00  7.3026479E-01
   7135.33  7.3090986E-01
   7135.67  7.3066981E-01
   7136.00  7.3023446E-01
   7136.33  7.2993795E-01
   7136.67  7.2957041E-01
   7137.00  7.2871170E-01
   7137.33  7.2667523E-01
   7137.67  7.2325394E-01
   7138.00  7.1849985E-01
   7138.33  7.1264933E-01
   7138.67  7.0618758E-01
   7139.00  6.9924619E-01
   7139.33  6.9163294E-01
   7139.67  6.8302993E-01
   7140.00  6.7294421E-01
   7140.33  6.6063514E-01
   7140.67  6.4639863E-01
   7141.00  6.3095510E-01
   7141.33  6.1583231E-01
   7141.67  6.0263450E-01
   7142.00  5.9239153E-01
   7142.33  5.8593149E-01
   7142.67  5.8236447E-01
   7143.00  5.8073872E-01
   7143.33  5.7964636E-01
   7143.67  5.7750235E-01
   7144.00  5.7321616E-01
   7144.33  5.6570144E-01
   7144.67  5.5535236E-01
   7145.00  5.4279606E-01
   7145.33  5.2909177E-01
   7145.67  5.1562529E-01
   7146.00  5.0327564E-01
   7146.33  4.9294718E-01
   7146.67  4.8471397E-01
   7147.00  4.7859722E-01
   7147.33  4.7467956E-01
   7147.67  4.7245373E-01
   7148.00  4.7167838E-01
   7148.33  4.7223480E-01
   7148.67  4.7373010E-01
   7149.00  4.7597340E-01
   7149.33  4.7883699E-01
   7149.67  4.8207814E-01
   7150.00  4.8555738E-01
   7150.33  4.8911994E-01
   7150.67  4.9258139E-01
   7151.00  4.9578519E-01
   7151.33  4.9851523E-01
   7151.67  5.0072980E-01
   7152.00  5.0244285E-01
   7152.33  5.0375217E-01
   7152.67  5.0493919E-01
   7153.00  5.0621544E-01
   7153.33  5.0778593E-01
   7153.67  5.0965658E-01
   7154.00  5.1174737E-01
   7154.33  5.1387133E-01
   7154.67  5.1578856E-01
   7155.00  5.1730872E-01
   7155.33  5.1819993E-01
   7155.67  5.1845721E-01
   7156.00  5.1808008E-01
   7156.33  5.1704000E-01
   7156.67  5.1546984E-01
   7157.00  5.1340909E-01
   7157.33  5.1081668E-01
   7157.67  5.0773744E-01
   7158.00  5.0413943E-01
   7158.33  4.9990498E-01
   7158.67  4.9506502E-01
   7159.00  4.8960435E-01
   7159.33  4.8346308E-01
   7159.67  4.7677600E-01
   7160.00  4.6962853E-01
   7160.33  4.6210970E-01
   7160.67  4.5441182E-01
   7161.00  4.4666857E-01
   7161.33  4.3903806E-01
   7161.67  4.3163097E-01
   7162.00  4.2452846E-01
   7162.33  4.1783604E-01
   7162.67  4.1153420E-01
   7163.00  4.0562507E-01
   7163.33  4.0014134E-01
   7163.67  3.9500901E-01
   7164.00  3.9020107E-01
   7164.33  3.8572472E-01
   7164.67  3.8151862E-01
   7165.00  3.7756791E-01
   7165.33  3.7389366E-01
   7165.67  3.7046337E-01
   7166.00  3.6728191E-01
   7166.33  3.6439400E-01
   7166.67  3.6178353E-01
   7167.00  3.5946556E-01
   7167.33  3.5749500E-01
   7167.67  3.5584635E-01
   7168.00  3.5452660E-01
   7168.33  3.5357855E-01
   7168.67  3.5295551E-01
   7169.00  3.5264841E-01
   7169.33  3.5267988E-01
   7169.67  3.5299314E-01
   7170.00  3.5356835E-01
   7170.33  3.5440735E-01
   7170.67  3.5544623E-01
   7171.00  3.5664491E-01
   7171.33  3.5794272E-01
   7171.67  3.5920506E-01
   7172.00  3.6027202E-01
