    FDMNES
    energy     <xanes>
   7097.00  4.7929348E-03
   7097.33  4.9009696E-03
   7097.67  5.0137161E-03
   7098.00  5.1314821E-03
   7098.33  5.2553399E-03
   7098.67  5.3850516E-03
   7099.00  5.5210329E-03
   7099.33  5.6646724E-03
   7099.67  5.8157213E-03
   7100.00  5.9747550E-03
   7100.33  6.1436164E-03
   7100.67  6.3220632E-03
   7101.00  6.5109156E-03
   7101.33  6.7126915E-03
   7101.67  6.9271947E-03
   7102.00  7.1556361E-03
   7102.33  7.4015791E-03
   7102.67  7.6649618E-03
   7103.00  7.9476503E-03
   7103.33  8.2549104E-03
   7103.67  8.5870157E-03
   7104.00  8.9469995E-03
   7104.33  9.3430786E-03
   7104.67  9.7763449E-03
   7105.00  1.0252075E-02
   7105.33  1.0784034E-02
   7105.67  1.1375382E-02
   7106.00  1.2036168E-02
   7106.33  1.2791775E-02
   7106.67  1.3651090E-02
   7107.00  1.4635824E-02
   7107.33  1.5799729E-02
   7107.67  1.7170175E-02
   7108.00  1.8803816E-02
   7108.33  2.0841701E-02
   7108.67  2.3388308E-02
   7109.00  2.6644541E-02
   7109.33  3.1142235E-02
   7109.67  3.7475694E-02
   7110.00  4.6817914E-02
   7110.33  6.2481266E-02
   7110.67  8.7136306E-02
   7111.00  1.1796136E-01
   7111.33  1.4203283E-01
   7111.67  1.6290463E-01
   7112.00  1.9529743E-01
   7112.33  2.2509200E-01
   7112.67  2.4464039E-01
   7113.00  2.6805540E-01
   7113.33  2.6759537E-01
   7113.67  2.5983833E-01
   7114.00  2.8282473E-01
   7114.33  3.5504443E-01
   7114.67  4.2663577E-01
   7115.00  4.2268562E-01
   7115.33  3.3525319E-01
   7115.67  2.5227749E-01
   7116.00  2.0154746E-01
   7116.33  1.8538359E-01
   7116.67  1.9556029E-01
   7117.00  2.2943651E-01
   7117.33  2.7713627E-01
   7117.67  3.1261645E-01
   7118.00  3.2001303E-01
   7118.33  2.9571592E-01
   7118.67  2.5889668E-01
   7119.00  2.2339279E-01
   7119.33  1.9649012E-01
   7119.67  1.7683611E-01
   7120.00  1.6243878E-01
   7120.33  1.5137790E-01
   7120.67  1.4206138E-01
   7121.00  1.3425124E-01
   7121.33  1.2818143E-01
   7121.67  1.2367353E-01
   7122.00  1.2064753E-01
   7122.33  1.1920069E-01
   7122.67  1.1917811E-01
   7123.00  1.2051915E-01
   7123.33  1.2288408E-01
   7123.67  1.2573449E-01
   7124.00  1.2931270E-01
   7124.33  1.3440782E-01
   7124.67  1.4114931E-01
   7125.00  1.4955650E-01
   7125.33  1.5999468E-01
   7125.67  1.7277689E-01
   7126.00  1.8868677E-01
   7126.33  2.0939883E-01
   7126.67  2.3545938E-01
   7127.00  2.6732444E-01
   7127.33  3.0499371E-01
   7127.67  3.4504206E-01
   7128.00  3.8280561E-01
   7128.33  4.1086078E-01
   7128.67  4.2772127E-01
   7129.00  4.3603890E-01
   7129.33  4.4107490E-01
   7129.67  4.4790134E-01
   7130.00  4.5896171E-01
   7130.33  4.7641232E-01
   7130.67  4.9996729E-01
   7131.00  5.2932116E-01
   7131.33  5.6416733E-01
   7131.67  6.0262465E-01
   7132.00  6.4335354E-01
   7132.33  6.8462009E-01
   7132.67  7.2439858E-01
   7133.00  7.6101550E-01
   7133.33  7.9218988E-01
   7133.67  8.1727332E-01
   7134.00  8.3558683E-01
   7134.33  8.4623757E-01
   7134.67  8.5111545E-01
   7135.00  8.5184112E-01
   7135.33  8.5040238E-01
   7135.67  8.4912803E-01
   7136.00  8.4942043E-01
   7136.33  8.5252462E-01
   7136.67  8.5803169E-01
   7137.00  8.6480772E-01
   7137.33  8.6998851E-01
   7137.67  8.6993151E-01
   7138.00  8.6128198E-01
   7138.33  8.4020352E-01
   7138.67  8.0842757E-01
   7139.00  7.6850356E-01
   7139.33  7.2424078E-01
   7139.67  6.8017903E-01
   7140.00  6.3884049E-01
   7140.33  6.0245954E-01
   7140.67  5.7108397E-01
   7141.00  5.4465530E-01
   7141.33  5.2331192E-01
   7141.67  5.0590490E-01
   7142.00  4.9192435E-01
   7142.33  4.8119944E-01
   7142.67  4.7293781E-01
   7143.00  4.6686057E-01
   7143.33  4.6298521E-01
   7143.67  4.6092669E-01
   7144.00  4.6061265E-01
   7144.33  4.6219139E-01
   7144.67  4.6537396E-01
   7145.00  4.7004473E-01
   7145.33  4.7612843E-01
   7145.67  4.8309469E-01
   7146.00  4.9049680E-01
   7146.33  4.9767879E-01
   7146.67  5.0401902E-01
   7147.00  5.0906684E-01
   7147.33  5.1235986E-01
   7147.67  5.1417249E-01
   7148.00  5.1482076E-01
   7148.33  5.1475396E-01
   7148.67  5.1459317E-01
   7149.00  5.1470995E-01
   7149.33  5.1543603E-01
   7149.67  5.1678933E-01
   7150.00  5.1871068E-01
   7150.33  5.2110777E-01
   7150.67  5.2378353E-01
   7151.00  5.2665173E-01
   7151.33  5.2969141E-01
   7151.67  5.3290414E-01
   7152.00  5.3634262E-01
   7152.33  5.4012591E-01
   7152.67  5.4429183E-01
   7153.00  5.4888589E-01
   7153.33  5.5397916E-01
   7153.67  5.5948596E-01
   7154.00  5.6534693E-01
   7154.33  5.7149225E-01
   7154.67  5.7776321E-01
   7155.00  5.8403899E-01
   7155.33  5.9015948E-01
   7155.67  5.9600761E-01
   7156.00  6.0148173E-01
   7156.33  6.0642699E-01
   7156.67  6.1083373E-01
   7157.00  6.1466554E-01
   7157.33  6.1782928E-01
   7157.67  6.2040080E-01
   7158.00  6.2239369E-01
   7158.33  6.2376444E-01
   7158.67  6.2461384E-01
   7159.00  6.2497082E-01
   7159.33  6.2481176E-01
   7159.67  6.2422611E-01
   7160.00  6.2323922E-01
   7160.33  6.2183036E-01
   7160.67  6.2006910E-01
   7161.00  6.1797302E-01
   7161.33  6.1552085E-01
   7161.67  6.1276782E-01
   7162.00  6.0972509E-01
   7162.33  6.0636915E-01
   7162.67  6.0274787E-01
   7163.00  5.9887137E-01
   7163.33  5.9471657E-01
   7163.67  5.9031868E-01
   7164.00  5.8567982E-01
   7164.33  5.8077219E-01
   7164.67  5.7562849E-01
   7165.00  5.7025293E-01
   7165.33  5.6462534E-01
   7165.67  5.5878656E-01
   7166.00  5.5275243E-01
   7166.33  5.4652417E-01
   7166.67  5.4015125E-01
   7167.00  5.3366169E-01
   7167.33  5.2707895E-01
   7167.67  5.2045230E-01
   7168.00  5.1381938E-01
   7168.33  5.0722794E-01
   7168.67  5.0071362E-01
   7169.00  4.9430872E-01
   7169.33  4.8806588E-01
   7169.67  4.8199862E-01
   7170.00  4.7613316E-01
   7170.33  4.7053167E-01
   7170.67  4.6520680E-01
   7171.00  4.6020823E-01
   7171.33  4.5567318E-01
   7171.67  4.5170156E-01
   7172.00  4.4848964E-01
