    FDMNES
    energy     <xanes>
   7097.00  4.7811591E-03
   7097.33  4.8887843E-03
   7097.67  5.0010950E-03
   7098.00  5.1183970E-03
   7098.33  5.2417558E-03
   7098.67  5.3709342E-03
   7099.00  5.5063448E-03
   7099.33  5.6493671E-03
   7099.67  5.7997530E-03
   7100.00  5.9580733E-03
   7100.33  6.1261583E-03
   7100.67  6.3037660E-03
   7101.00  6.4917101E-03
   7101.33  6.6924902E-03
   7101.67  6.9059101E-03
   7102.00  7.1331709E-03
   7102.33  7.3778093E-03
   7102.67  7.6397621E-03
   7103.00  7.9208805E-03
   7103.33  8.2263902E-03
   7103.67  8.5565617E-03
   7104.00  8.9144049E-03
   7104.33  9.3080758E-03
   7104.67  9.7386598E-03
   7105.00  1.0211398E-02
   7105.33  1.0739964E-02
   7105.67  1.1327509E-02
   7106.00  1.1984035E-02
   7106.33  1.2734804E-02
   7106.67  1.3588718E-02
   7107.00  1.4567467E-02
   7107.33  1.5724768E-02
   7107.67  1.7088233E-02
   7108.00  1.8714890E-02
   7108.33  2.0746932E-02
   7108.67  2.3291056E-02
   7109.00  2.6552477E-02
   7109.33  3.1076719E-02
   7109.67  3.7483038E-02
   7110.00  4.6996557E-02
   7110.33  6.3070632E-02
   7110.67  8.8266015E-02
   7111.00  1.1848841E-01
   7111.33  1.3922870E-01
   7111.67  1.5735824E-01
   7112.00  1.8760564E-01
   7112.33  2.1588599E-01
   7112.67  2.3594264E-01
   7113.00  2.6237805E-01
   7113.33  2.6626726E-01
   7113.67  2.5933124E-01
   7114.00  2.8115514E-01
   7114.33  3.5377629E-01
   7114.67  4.2905945E-01
   7115.00  4.2538426E-01
   7115.33  3.3556990E-01
   7115.67  2.5288212E-01
   7116.00  2.0301371E-01
   7116.33  1.8776773E-01
   7116.67  1.9954186E-01
   7117.00  2.3557502E-01
   7117.33  2.8407385E-01
   7117.67  3.1816072E-01
   7118.00  3.2358294E-01
   7118.33  2.9759611E-01
   7118.67  2.5958741E-01
   7119.00  2.2358299E-01
   7119.33  1.9670906E-01
   7119.67  1.7726377E-01
   7120.00  1.6312432E-01
   7120.33  1.5227384E-01
   7120.67  1.4296316E-01
   7121.00  1.3487984E-01
   7121.33  1.2827635E-01
   7121.67  1.2305207E-01
   7122.00  1.1920855E-01
   7122.33  1.1711937E-01
   7122.67  1.1690618E-01
   7123.00  1.1859535E-01
   7123.33  1.2179679E-01
   7123.67  1.2557145E-01
   7124.00  1.2967066E-01
   7124.33  1.3443707E-01
   7124.67  1.4025471E-01
   7125.00  1.4750794E-01
   7125.33  1.5689662E-01
   7125.67  1.6875129E-01
   7126.00  1.8374395E-01
   7126.33  2.0347436E-01
   7126.67  2.2863604E-01
   7127.00  2.5999897E-01
   7127.33  2.9815541E-01
   7127.67  3.3990823E-01
   7128.00  3.8041376E-01
   7128.33  4.1126290E-01
   7128.67  4.2978218E-01
   7129.00  4.3817650E-01
   7129.33  4.4182763E-01
   7129.67  4.4672006E-01
   7130.00  4.5593443E-01
   7130.33  4.7216088E-01
   7130.67  4.9519513E-01
   7131.00  5.2466878E-01
   7131.33  5.6011032E-01
   7131.67  5.9930376E-01
   7132.00  6.4070952E-01
   7132.33  6.8253752E-01
   7132.67  7.2300895E-01
   7133.00  7.6074390E-01
   7133.33  7.9354585E-01
   7133.67  8.2014133E-01
   7134.00  8.3912394E-01
   7134.33  8.4885385E-01
   7134.67  8.5137513E-01
   7135.00  8.4862340E-01
   7135.33  8.4302448E-01
   7135.67  8.3752162E-01
   7136.00  8.3400962E-01
   7136.33  8.3459154E-01
   7136.67  8.3969243E-01
   7137.00  8.4921890E-01
   7137.33  8.6198705E-01
   7137.67  8.7410761E-01
   7138.00  8.8101239E-01
   7138.33  8.7545743E-01
   7138.67  8.5498861E-01
   7139.00  8.1980712E-01
   7139.33  7.7289360E-01
   7139.67  7.2173599E-01
   7140.00  6.7105863E-01
   7140.33  6.2500001E-01
   7140.67  5.8470427E-01
   7141.00  5.5049706E-01
   7141.33  5.2280422E-01
   7141.67  5.0030524E-01
   7142.00  4.8244285E-01
   7142.33  4.6910679E-01
   7142.67  4.5924201E-01
   7143.00  4.5242256E-01
   7143.33  4.4853078E-01
   7143.67  4.4686583E-01
   7144.00  4.4716894E-01
   7144.33  4.4942825E-01
   7144.67  4.5325133E-01
   7145.00  4.5849641E-01
   7145.33  4.6510626E-01
   7145.67  4.7261906E-01
   7146.00  4.8065897E-01
   7146.33  4.8866961E-01
   7146.67  4.9605005E-01
   7147.00  5.0233618E-01
   7147.33  5.0700398E-01
   7147.67  5.1019527E-01
   7148.00  5.1212622E-01
   7148.33  5.1314249E-01
   7148.67  5.1385206E-01
   7149.00  5.1463552E-01
   7149.33  5.1585276E-01
   7149.67  5.1756651E-01
   7150.00  5.1971292E-01
   7150.33  5.2216482E-01
   7150.67  5.2472316E-01
   7151.00  5.2728982E-01
   7151.33  5.2982666E-01
   7151.67  5.3238834E-01
   7152.00  5.3507025E-01
   7152.33  5.3804118E-01
   7152.67  5.4139968E-01
   7153.00  5.4523229E-01
   7153.33  5.4965884E-01
   7153.67  5.5461130E-01
   7154.00  5.6004806E-01
   7154.33  5.6593316E-01
   7154.67  5.7210135E-01
   7155.00  5.7843851E-01
   7155.33  5.8480818E-01
   7155.67  5.9106795E-01
   7156.00  5.9710552E-01
   7156.33  6.0276174E-01
   7156.67  6.0798199E-01
   7157.00  6.1270068E-01
   7157.33  6.1679266E-01
   7157.67  6.2029286E-01
   7158.00  6.2318607E-01
   7158.33  6.2539302E-01
   7158.67  6.2699965E-01
   7159.00  6.2802180E-01
   7159.33  6.2841457E-01
   7159.67  6.2827776E-01
   7160.00  6.2763914E-01
   7160.33  6.2647324E-01
   7160.67  6.2487168E-01
   7161.00  6.2286264E-01
   7161.33  6.2043082E-01
   7161.67  6.1765240E-01
   7162.00  6.1455007E-01
   7162.33  6.1111209E-01
   7162.67  6.0739907E-01
   7163.00  6.0342511E-01
   7163.33  5.9917091E-01
   7163.67  5.9467394E-01
   7164.00  5.8993597E-01
   7164.33  5.8492646E-01
   7164.67  5.7967450E-01
   7165.00  5.7418064E-01
   7165.33  5.6841817E-01
   7165.67  5.6242437E-01
   7166.00  5.5621042E-01
   7166.33  5.4976849E-01
   7166.67  5.4314711E-01
   7167.00  5.3637177E-01
   7167.33  5.2945951E-01
   7167.67  5.2246161E-01
   7168.00  5.1541685E-01
   7168.33  5.0837522E-01
   7168.67  5.0138753E-01
   7169.00  4.9449884E-01
   7169.33  4.8778085E-01
   7169.67  4.8126613E-01
   7170.00  4.7499796E-01
   7170.33  4.6906370E-01
   7170.67  4.6348014E-01
   7171.00  4.5830197E-01
   7171.33  4.5367309E-01
   7171.67  4.4966663E-01
   7172.00  4.4645207E-01
