    FDMNES
    energy     <xanes>
   7097.00  4.3745770E-03
   7097.33  4.4661059E-03
   7097.67  4.5613750E-03
   7098.00  4.6606243E-03
   7098.33  4.7646990E-03
   7098.67  4.8734070E-03
   7099.00  4.9870752E-03
   7099.33  5.1068012E-03
   7099.67  5.2323896E-03
   7100.00  5.3642992E-03
   7100.33  5.5039973E-03
   7100.67  5.6513044E-03
   7101.00  5.8068869E-03
   7101.33  5.9727759E-03
   7101.67  6.1488506E-03
   7102.00  6.3361206E-03
   7102.33  6.5375190E-03
   7102.67  6.7530802E-03
   7103.00  6.9844129E-03
   7103.33  7.2359796E-03
   7103.67  7.5081943E-03
   7104.00  7.8037851E-03
   7104.33  8.1299989E-03
   7104.67  8.4881830E-03
   7105.00  8.8833389E-03
   7105.33  9.3282610E-03
   7105.67  9.8267180E-03
   7106.00  1.0388856E-02
   7106.33  1.1039896E-02
   7106.67  1.1790557E-02
   7107.00  1.2664435E-02
   7107.33  1.3719414E-02
   7107.67  1.4989634E-02
   7108.00  1.6541832E-02
   7108.33  1.8542064E-02
   7108.67  2.1126099E-02
   7109.00  2.4548974E-02
   7109.33  2.9488936E-02
   7109.67  3.6739826E-02
   7110.00  4.7863275E-02
   7110.33  6.7398612E-02
   7110.67  1.0030851E-01
   7111.00  1.4741138E-01
   7111.33  1.8802430E-01
   7111.67  2.0482841E-01
   7112.00  2.0344679E-01
   7112.33  1.9731735E-01
   7112.67  1.9770799E-01
   7113.00  1.9052086E-01
   7113.33  1.5996155E-01
   7113.67  1.2709479E-01
   7114.00  1.0410193E-01
   7114.33  9.0353695E-02
   7114.67  7.7984947E-02
   7115.00  6.6575368E-02
   7115.33  5.9028671E-02
   7115.67  5.4822133E-02
   7116.00  5.3135377E-02
   7116.33  5.3502025E-02
   7116.67  5.5284599E-02
   7117.00  5.8258568E-02
   7117.33  6.2394542E-02
   7117.67  6.7498487E-02
   7118.00  7.3537442E-02
   7118.33  8.0498808E-02
   7118.67  8.7996539E-02
   7119.00  9.5654651E-02
   7119.33  1.0304714E-01
   7119.67  1.1018685E-01
   7120.00  1.1742917E-01
   7120.33  1.2534415E-01
   7120.67  1.3410441E-01
   7121.00  1.4371750E-01
   7121.33  1.5420906E-01
   7121.67  1.6544769E-01
   7122.00  1.7750234E-01
   7122.33  1.9078897E-01
   7122.67  2.0572983E-01
   7123.00  2.2300702E-01
   7123.33  2.4390679E-01
   7123.67  2.6866571E-01
   7124.00  2.9714946E-01
   7124.33  3.2827751E-01
   7124.67  3.5939515E-01
   7125.00  3.8840372E-01
   7125.33  4.1500629E-01
   7125.67  4.4335410E-01
   7126.00  4.7574513E-01
   7126.33  5.1016939E-01
   7126.67  5.4276960E-01
   7127.00  5.7237144E-01
   7127.33  6.0060294E-01
   7127.67  6.3057737E-01
   7128.00  6.6253696E-01
   7128.33  6.9281587E-01
   7128.67  7.1735091E-01
   7129.00  7.3519273E-01
   7129.33  7.4806044E-01
   7129.67  7.5809025E-01
   7130.00  7.6381767E-01
   7130.33  7.6138348E-01
   7130.67  7.5115293E-01
   7131.00  7.3561486E-01
   7131.33  7.1866202E-01
   7131.67  7.0339921E-01
   7132.00  6.9148127E-01
   7132.33  6.8503681E-01
   7132.67  6.8430523E-01
   7133.00  6.8914358E-01
   7133.33  6.9886174E-01
   7133.67  7.1085617E-01
   7134.00  7.2322494E-01
   7134.33  7.3440743E-01
   7134.67  7.4436980E-01
   7135.00  7.5343292E-01
   7135.33  7.6154948E-01
   7135.67  7.6804669E-01
   7136.00  7.7158273E-01
   7136.33  7.7035252E-01
   7136.67  7.6509509E-01
   7137.00  7.5710594E-01
   7137.33  7.4810195E-01
   7137.67  7.3958009E-01
   7138.00  7.3216455E-01
   7138.33  7.2617307E-01
   7138.67  7.2118899E-01
   7139.00  7.1680607E-01
   7139.33  7.1249150E-01
   7139.67  7.0774545E-01
   7140.00  7.0225214E-01
   7140.33  6.9568757E-01
   7140.67  6.8814359E-01
   7141.00  6.7972779E-01
   7141.33  6.7058371E-01
   7141.67  6.6106054E-01
   7142.00  6.5140464E-01
   7142.33  6.4191524E-01
   7142.67  6.3282078E-01
   7143.00  6.2428869E-01
   7143.33  6.1653173E-01
   7143.67  6.0950704E-01
   7144.00  6.0318410E-01
   7144.33  5.9753208E-01
   7144.67  5.9231832E-01
   7145.00  5.8738875E-01
   7145.33  5.8258473E-01
   7145.67  5.7775046E-01
   7146.00  5.7279880E-01
   7146.33  5.6764559E-01
   7146.67  5.6228502E-01
   7147.00  5.5670948E-01
   7147.33  5.5089076E-01
   7147.67  5.4485731E-01
   7148.00  5.3861281E-01
   7148.33  5.3213079E-01
   7148.67  5.2542609E-01
   7149.00  5.1848171E-01
   7149.33  5.1123856E-01
   7149.67  5.0370052E-01
   7150.00  4.9584248E-01
   7150.33  4.8759501E-01
   7150.67  4.7898417E-01
   7151.00  4.7000682E-01
   7151.33  4.6063352E-01
   7151.67  4.5094853E-01
   7152.00  4.4101029E-01
   7152.33  4.3089519E-01
   7152.67  4.2074767E-01
   7153.00  4.1069366E-01
   7153.33  4.0092150E-01
   7153.67  3.9155786E-01
   7154.00  3.8273479E-01
   7154.33  3.7467803E-01
   7154.67  3.6741826E-01
   7155.00  3.6102561E-01
   7155.33  3.5565785E-01
   7155.67  3.5120187E-01
   7156.00  3.4761762E-01
   7156.33  3.4489934E-01
   7156.67  3.4278866E-01
   7157.00  3.4110509E-01
   7157.33  3.3963244E-01
   7157.67  3.3810754E-01
   7158.00  3.3635368E-01
   7158.33  3.3418440E-01
   7158.67  3.3159737E-01
   7159.00  3.2862279E-01
   7159.33  3.2532215E-01
   7159.67  3.2187270E-01
   7160.00  3.1841094E-01
   7160.33  3.1511155E-01
   7160.67  3.1209615E-01
   7161.00  3.0946523E-01
   7161.33  3.0737194E-01
   7161.67  3.0582830E-01
   7162.00  3.0487949E-01
   7162.33  3.0463728E-01
   7162.67  3.0504379E-01
   7163.00  3.0610809E-01
   7163.33  3.0791259E-01
   7163.67  3.1036423E-01
   7164.00  3.1344463E-01
   7164.33  3.1719553E-01
   7164.67  3.2149433E-01
   7165.00  3.2628656E-01
   7165.33  3.3155034E-01
   7165.67  3.3715180E-01
   7166.00  3.4301810E-01
   7166.33  3.4908830E-01
   7166.67  3.5526157E-01
   7167.00  3.6147772E-01
   7167.33  3.6767461E-01
   7167.67  3.7380529E-01
   7168.00  3.7983569E-01
   7168.33  3.8571855E-01
   7168.67  3.9144658E-01
   7169.00  3.9700301E-01
   7169.33  4.0234713E-01
   7169.67  4.0748605E-01
   7170.00  4.1240509E-01
   7170.33  4.1705501E-01
   7170.67  4.2144025E-01
   7171.00  4.2552874E-01
   7171.33  4.2921321E-01
   7171.67  4.3242332E-01
   7172.00  4.3500905E-01
