    FDMNES
    energy     <xanes>
   7097.00  4.9093225E-03
   7097.33  5.0273695E-03
   7097.67  5.1509098E-03
   7098.00  5.2803287E-03
   7098.33  5.4169214E-03
   7098.67  5.5604481E-03
   7099.00  5.7114405E-03
   7099.33  5.8716115E-03
   7099.67  6.0407248E-03
   7100.00  6.2195348E-03
   7100.33  6.4103722E-03
   7100.67  6.6130370E-03
   7101.00  6.8286365E-03
   7101.33  7.0604489E-03
   7101.67  7.3083839E-03
   7102.00  7.5741321E-03
   7102.33  7.8624926E-03
   7102.67  8.1736477E-03
   7103.00  8.5103028E-03
   7103.33  8.8798364E-03
   7103.67  9.2830755E-03
   7104.00  9.7246091E-03
   7104.33  1.0216492E-02
   7104.67  1.0761101E-02
   7105.00  1.1366809E-02
   7105.33  1.2054902E-02
   7105.67  1.2831693E-02
   7106.00  1.3713989E-02
   7106.33  1.4743423E-02
   7106.67  1.5937368E-02
   7107.00  1.7334191E-02
   7107.33  1.9027762E-02
   7107.67  2.1071749E-02
   7108.00  2.3571621E-02
   7108.33  2.6788627E-02
   7108.67  3.0928776E-02
   7109.00  3.6379308E-02
   7109.33  4.4161096E-02
   7109.67  5.5429444E-02
   7110.00  7.2446082E-02
   7110.33  1.0173153E-01
   7110.67  1.5034823E-01
   7111.00  2.1972887E-01
   7111.33  2.8347069E-01
   7111.67  3.2977433E-01
   7112.00  3.8125007E-01
   7112.33  4.3987559E-01
   7112.67  4.5069530E-01
   7113.00  3.8648425E-01
   7113.33  2.9322338E-01
   7113.67  2.1946343E-01
   7114.00  1.7134667E-01
   7114.33  1.4819983E-01
   7114.67  1.4394900E-01
   7115.00  1.5538409E-01
   7115.33  1.6809091E-01
   7115.67  1.6032669E-01
   7116.00  1.3557716E-01
   7116.33  1.1242268E-01
   7116.67  9.7117381E-02
   7117.00  8.8661358E-02
   7117.33  8.5390117E-02
   7117.67  8.4747353E-02
   7118.00  8.5462593E-02
   7118.33  8.6997831E-02
   7118.67  8.9475761E-02
   7119.00  9.3070731E-02
   7119.33  9.7366747E-02
   7119.67  1.0174739E-01
   7120.00  1.0652020E-01
   7120.33  1.1265820E-01
   7120.67  1.2040123E-01
   7121.00  1.2959715E-01
   7121.33  1.4047053E-01
   7121.67  1.5388710E-01
   7122.00  1.7090492E-01
   7122.33  1.9244573E-01
   7122.67  2.1802198E-01
   7123.00  2.4757386E-01
   7123.33  2.8049688E-01
   7123.67  3.1331861E-01
   7124.00  3.4272888E-01
   7124.33  3.6553836E-01
   7124.67  3.8154745E-01
   7125.00  3.9148394E-01
   7125.33  3.9801204E-01
   7125.67  4.0525590E-01
   7126.00  4.1554346E-01
   7126.33  4.3063052E-01
   7126.67  4.4935505E-01
   7127.00  4.6992165E-01
   7127.33  4.9087089E-01
   7127.67  5.1302491E-01
   7128.00  5.3811858E-01
   7128.33  5.6785062E-01
   7128.67  6.0137001E-01
   7129.00  6.3737282E-01
   7129.33  6.7381019E-01
   7129.67  7.0902943E-01
   7130.00  7.4287547E-01
   7130.33  7.7621603E-01
   7130.67  8.0941653E-01
   7131.00  8.4049112E-01
   7131.33  8.6246749E-01
   7131.67  8.6894744E-01
   7132.00  8.5689513E-01
   7132.33  8.2818294E-01
   7132.67  7.9356906E-01
   7133.00  7.6078814E-01
   7133.33  7.3678481E-01
   7133.67  7.2237268E-01
   7134.00  7.1609595E-01
   7134.33  7.1501008E-01
   7134.67  7.1541004E-01
   7135.00  7.1574937E-01
   7135.33  7.1471283E-01
   7135.67  7.1195567E-01
   7136.00  7.0806734E-01
   7136.33  7.0438300E-01
   7136.67  7.0161053E-01
   7137.00  6.9962067E-01
   7137.33  6.9795749E-01
   7137.67  6.9620492E-01
   7138.00  6.9416546E-01
   7138.33  6.9150613E-01
   7138.67  6.8790986E-01
   7139.00  6.8303622E-01
   7139.33  6.7642803E-01
   7139.67  6.6814458E-01
   7140.00  6.5810204E-01
   7140.33  6.4605464E-01
   7140.67  6.3252173E-01
   7141.00  6.1815250E-01
   7141.33  6.0406995E-01
   7141.67  5.9137228E-01
   7142.00  5.8083792E-01
   7142.33  5.7337231E-01
   7142.67  5.6880706E-01
   7143.00  5.6696862E-01
   7143.33  5.6751516E-01
   7143.67  5.6912829E-01
   7144.00  5.7060781E-01
   7144.33  5.7023306E-01
   7144.67  5.6696638E-01
   7145.00  5.6028324E-01
   7145.33  5.5002479E-01
   7145.67  5.3765495E-01
   7146.00  5.2440582E-01
   7146.33  5.1168465E-01
   7146.67  5.0042766E-01
   7147.00  4.9111353E-01
   7147.33  4.8418023E-01
   7147.67  4.7928983E-01
   7148.00  4.7628809E-01
   7148.33  4.7516691E-01
   7148.67  4.7548299E-01
   7149.00  4.7702974E-01
   7149.33  4.7969555E-01
   7149.67  4.8313058E-01
   7150.00  4.8715369E-01
   7150.33  4.9162579E-01
   7150.67  4.9634040E-01
   7151.00  5.0119290E-01
   7151.33  5.0609921E-01
   7151.67  5.1098431E-01
   7152.00  5.1579105E-01
   7152.33  5.2041823E-01
   7152.67  5.2477682E-01
   7153.00  5.2874956E-01
   7153.33  5.3211382E-01
   7153.67  5.3478045E-01
   7154.00  5.3663120E-01
   7154.33  5.3745373E-01
   7154.67  5.3732034E-01
   7155.00  5.3624223E-01
   7155.33  5.3417055E-01
   7155.67  5.3131478E-01
   7156.00  5.2777424E-01
   7156.33  5.2359246E-01
   7156.67  5.1894218E-01
   7157.00  5.1389560E-01
   7157.33  5.0847851E-01
   7157.67  5.0278433E-01
   7158.00  4.9684981E-01
   7158.33  4.9068665E-01
   7158.67  4.8435573E-01
   7159.00  4.7788954E-01
   7159.33  4.7132079E-01
   7159.67  4.6471209E-01
   7160.00  4.5810932E-01
   7160.33  4.5157567E-01
   7160.67  4.4515862E-01
   7161.00  4.3890179E-01
   7161.33  4.3287339E-01
   7161.67  4.2707847E-01
   7162.00  4.2152930E-01
   7162.33  4.1625541E-01
   7162.67  4.1121656E-01
   7163.00  4.0640103E-01
   7163.33  4.0181927E-01
   7163.67  3.9743044E-01
   7164.00  3.9322495E-01
   7164.33  3.8921985E-01
   7164.67  3.8539506E-01
   7165.00  3.8175941E-01
   7165.33  3.7835629E-01
   7165.67  3.7518315E-01
   7166.00  3.7226325E-01
   7166.33  3.6966020E-01
   7166.67  3.6736508E-01
   7167.00  3.6539600E-01
   7167.33  3.6381011E-01
   7167.67  3.6257198E-01
   7168.00  3.6168138E-01
   7168.33  3.6117253E-01
   7168.67  3.6098742E-01
   7169.00  3.6110809E-01
   7169.33  3.6154426E-01
   7169.67  3.6223121E-01
   7170.00  3.6314001E-01
   7170.33  3.6425594E-01
   7170.67  3.6551257E-01
   7171.00  3.6686486E-01
   7171.33  3.6824461E-01
   7171.67  3.6953731E-01
   7172.00  3.7060607E-01
