    FDMNES
    energy     <xanes>
   7097.00  5.2254777E-03
   7097.33  5.3527723E-03
   7097.67  5.4859620E-03
   7098.00  5.6254470E-03
   7098.33  5.7725924E-03
   7098.67  5.9271189E-03
   7099.00  6.0895687E-03
   7099.33  6.2617223E-03
   7099.67  6.4432892E-03
   7100.00  6.6350225E-03
   7100.33  6.8393002E-03
   7100.67  7.0558429E-03
   7101.00  7.2857266E-03
   7101.33  7.5322167E-03
   7101.67  7.7950950E-03
   7102.00  8.0759503E-03
   7102.33  8.3794174E-03
   7102.67  8.7054492E-03
   7103.00  9.0564856E-03
   7103.33  9.4393734E-03
   7103.67  9.8544806E-03
   7104.00  1.0305739E-02
   7104.33  1.0803772E-02
   7104.67  1.1349931E-02
   7105.00  1.1950941E-02
   7105.33  1.2624352E-02
   7105.67  1.3373899E-02
   7106.00  1.4212021E-02
   7106.33  1.5170188E-02
   7106.67  1.6258377E-02
   7107.00  1.7502158E-02
   7107.33  1.8964809E-02
   7107.67  2.0674862E-02
   7108.00  2.2693679E-02
   7108.33  2.5172504E-02
   7108.67  2.8208382E-02
   7109.00  3.1990440E-02
   7109.33  3.7003580E-02
   7109.67  4.3712366E-02
   7110.00  5.3019794E-02
   7110.33  6.7436238E-02
   7110.67  8.9480325E-02
   7111.00  1.2045645E-01
   7111.33  1.5777615E-01
   7111.67  1.9959383E-01
   7112.00  2.5031346E-01
   7112.33  3.1383830E-01
   7112.67  3.9509361E-01
   7113.00  4.9481880E-01
   7113.33  5.8814213E-01
   7113.67  6.3903089E-01
   7114.00  6.3501612E-01
   7114.33  5.7322680E-01
   7114.67  4.7776897E-01
   7115.00  3.8465607E-01
   7115.33  3.1743001E-01
   7115.67  2.7129736E-01
   7116.00  2.4105929E-01
   7116.33  2.2348267E-01
   7116.67  2.1378211E-01
   7117.00  2.0881563E-01
   7117.33  2.0410229E-01
   7117.67  1.9604243E-01
   7118.00  1.8398160E-01
   7118.33  1.6971008E-01
   7118.67  1.5635079E-01
   7119.00  1.4528318E-01
   7119.33  1.3694752E-01
   7119.67  1.3050262E-01
   7120.00  1.2555360E-01
   7120.33  1.2207630E-01
   7120.67  1.1982658E-01
   7121.00  1.1867326E-01
   7121.33  1.1848655E-01
   7121.67  1.1891091E-01
   7122.00  1.1994077E-01
   7122.33  1.2195162E-01
   7122.67  1.2495515E-01
   7123.00  1.2885487E-01
   7123.33  1.3363295E-01
   7123.67  1.3917335E-01
   7124.00  1.4552002E-01
   7124.33  1.5286217E-01
   7124.67  1.6120331E-01
   7125.00  1.7075311E-01
   7125.33  1.8219318E-01
   7125.67  1.9591452E-01
   7126.00  2.1238010E-01
   7126.33  2.3236630E-01
   7126.67  2.5557881E-01
   7127.00  2.8169206E-01
   7127.33  3.0990264E-01
   7127.67  3.3821496E-01
   7128.00  3.6494499E-01
   7128.33  3.8921221E-01
   7128.67  4.1332877E-01
   7129.00  4.4033538E-01
   7129.33  4.7398155E-01
   7129.67  5.1456362E-01
   7130.00  5.6096236E-01
   7130.33  6.1059087E-01
   7130.67  6.6015489E-01
   7131.00  7.0827963E-01
   7131.33  7.5454813E-01
   7131.67  7.9971361E-01
   7132.00  8.4431677E-01
   7132.33  8.8862344E-01
   7132.67  9.3215566E-01
   7133.00  9.7339700E-01
   7133.33  1.0082982E+00
   7133.67  1.0329842E+00
   7134.00  1.0437174E+00
   7134.33  1.0361858E+00
   7134.67  1.0133240E+00
   7135.00  9.7797801E-01
   7135.33  9.3331007E-01
   7135.67  8.8415524E-01
   7136.00  8.3297492E-01
   7136.33  7.8176304E-01
   7136.67  7.3191808E-01
   7137.00  6.8441260E-01
   7137.33  6.4071148E-01
   7137.67  6.0136501E-01
   7138.00  5.6710211E-01
   7138.33  5.3926135E-01
   7138.67  5.1742489E-01
   7139.00  5.0154262E-01
   7139.33  4.9189029E-01
   7139.67  4.8703283E-01
   7140.00  4.8616595E-01
   7140.33  4.8866845E-01
   7140.67  4.9323067E-01
   7141.00  4.9916915E-01
   7141.33  5.0596021E-01
   7141.67  5.1307963E-01
   7142.00  5.2028503E-01
   7142.33  5.2738612E-01
   7142.67  5.3428157E-01
   7143.00  5.4089684E-01
   7143.33  5.4710301E-01
   7143.67  5.5285501E-01
   7144.00  5.5806921E-01
   7144.33  5.6257000E-01
   7144.67  5.6635288E-01
   7145.00  5.6936512E-01
   7145.33  5.7147696E-01
   7145.67  5.7279846E-01
   7146.00  5.7337051E-01
   7146.33  5.7318366E-01
   7146.67  5.7240425E-01
   7147.00  5.7110501E-01
   7147.33  5.6932740E-01
   7147.67  5.6722515E-01
   7148.00  5.6488374E-01
   7148.33  5.6237988E-01
   7148.67  5.5982013E-01
   7149.00  5.5727576E-01
   7149.33  5.5483487E-01
   7149.67  5.5255729E-01
   7150.00  5.5050284E-01
   7150.33  5.4876843E-01
   7150.67  5.4736311E-01
   7151.00  5.4631529E-01
   7151.33  5.4569721E-01
   7151.67  5.4547763E-01
   7152.00  5.4566556E-01
   7152.33  5.4631907E-01
   7152.67  5.4738967E-01
   7153.00  5.4887841E-01
   7153.33  5.5083671E-01
   7153.67  5.5320783E-01
   7154.00  5.5598239E-01
   7154.33  5.5918551E-01
   7154.67  5.6273080E-01
   7155.00  5.6657100E-01
   7155.33  5.7066199E-01
   7155.67  5.7488591E-01
   7156.00  5.7915316E-01
   7156.33  5.8334176E-01
   7156.67  5.8734536E-01
   7157.00  5.9107021E-01
   7157.33  5.9437284E-01
   7157.67  5.9722222E-01
   7158.00  5.9956829E-01
   7158.33  6.0130478E-01
   7158.67  6.0247981E-01
   7159.00  6.0308837E-01
   7159.33  6.0306423E-01
   7159.67  6.0248863E-01
   7160.00  6.0137354E-01
   7160.33  5.9966754E-01
   7160.67  5.9744795E-01
   7161.00  5.9472101E-01
   7161.33  5.9142826E-01
   7161.67  5.8763938E-01
   7162.00  5.8336380E-01
   7162.33  5.7855456E-01
   7162.67  5.7328942E-01
   7163.00  5.6759626E-01
   7163.33  5.6147026E-01
   7163.67  5.5501093E-01
   7164.00  5.4826725E-01
   7164.33  5.4127060E-01
   7164.67  5.3410872E-01
   7165.00  5.2683067E-01
   7165.33  5.1948152E-01
   7165.67  5.1211878E-01
   7166.00  5.0478218E-01
   7166.33  4.9752257E-01
   7166.67  4.9037052E-01
   7167.00  4.8335649E-01
   7167.33  4.7653240E-01
   7167.67  4.6990492E-01
   7168.00  4.6349648E-01
   7168.33  4.5736156E-01
   7168.67  4.5149426E-01
   7169.00  4.4591477E-01
   7169.33  4.4068004E-01
   7169.67  4.3576637E-01
   7170.00  4.3118477E-01
   7170.33  4.2699082E-01
   7170.67  4.2315556E-01
   7171.00  4.1969462E-01
   7171.33  4.1668623E-01
   7171.67  4.1413196E-01
   7172.00  4.1209797E-01
