    FDMNES
    energy     <xanes>
   7097.00  5.2047121E-03
   7097.33  5.3314023E-03
   7097.67  5.4639517E-03
   7098.00  5.6027573E-03
   7098.33  5.7491750E-03
   7098.67  5.9029264E-03
   7099.00  6.0645495E-03
   7099.33  6.2358118E-03
   7099.67  6.4164237E-03
   7100.00  6.6071319E-03
   7100.33  6.8102962E-03
   7100.67  7.0256374E-03
   7101.00  7.2542220E-03
   7101.33  7.4992889E-03
   7101.67  7.7606188E-03
   7102.00  8.0397856E-03
   7102.33  8.3413841E-03
   7102.67  8.6653632E-03
   7103.00  9.0141391E-03
   7103.33  9.3944954E-03
   7103.67  9.8067907E-03
   7104.00  1.0254916E-02
   7104.33  1.0749394E-02
   7104.67  1.1291551E-02
   7105.00  1.1888046E-02
   7105.33  1.2556252E-02
   7105.67  1.3299860E-02
   7106.00  1.4131187E-02
   7106.33  1.5081403E-02
   7106.67  1.6160409E-02
   7107.00  1.7393579E-02
   7107.33  1.8843735E-02
   7107.67  2.0539405E-02
   7108.00  2.2541877E-02
   7108.33  2.5002484E-02
   7108.67  2.8019828E-02
   7109.00  3.1786216E-02
   7109.33  3.6797775E-02
   7109.67  4.3543143E-02
   7110.00  5.2977268E-02
   7110.33  6.7763154E-02
   7110.67  9.0399356E-02
   7111.00  1.2111911E-01
   7111.33  1.5448431E-01
   7111.67  1.8839380E-01
   7112.00  2.2712245E-01
   7112.33  2.8538681E-01
   7112.67  3.7763511E-01
   7113.00  5.0273424E-01
   7113.33  6.1643621E-01
   7113.67  6.6876370E-01
   7114.00  6.5441904E-01
   7114.33  5.8055017E-01
   7114.67  4.7835427E-01
   7115.00  3.8188304E-01
   7115.33  3.1186149E-01
   7115.67  2.6330998E-01
   7116.00  2.3138241E-01
   7116.33  2.1343866E-01
   7116.67  2.0501652E-01
   7117.00  2.0296311E-01
   7117.33  2.0151495E-01
   7117.67  1.9558183E-01
   7118.00  1.8465661E-01
   7118.33  1.7108236E-01
   7118.67  1.5827406E-01
   7119.00  1.4777992E-01
   7119.33  1.4013093E-01
   7119.67  1.3434876E-01
   7120.00  1.2985990E-01
   7120.33  1.2645715E-01
   7120.67  1.2395860E-01
   7121.00  1.2235233E-01
   7121.33  1.2163617E-01
   7121.67  1.2157063E-01
   7122.00  1.2217962E-01
   7122.33  1.2364141E-01
   7122.67  1.2579926E-01
   7123.00  1.2856241E-01
   7123.33  1.3198138E-01
   7123.67  1.3606790E-01
   7124.00  1.4096905E-01
   7124.33  1.4706314E-01
   7124.67  1.5452432E-01
   7125.00  1.6363860E-01
   7125.33  1.7497391E-01
   7125.67  1.8858000E-01
   7126.00  2.0472980E-01
   7126.33  2.2415531E-01
   7126.67  2.4677830E-01
   7127.00  2.7255107E-01
   7127.33  3.0109392E-01
   7127.67  3.3058580E-01
   7128.00  3.5936618E-01
   7128.33  3.8609265E-01
   7128.67  4.1179037E-01
   7129.00  4.3841449E-01
   7129.33  4.6912415E-01
   7129.67  5.0553794E-01
   7130.00  5.4817693E-01
   7130.33  5.9652345E-01
   7130.67  6.4761204E-01
   7131.00  6.9955531E-01
   7131.33  7.5119896E-01
   7131.67  8.0254308E-01
   7132.00  8.5379987E-01
   7132.33  9.0459477E-01
   7132.67  9.5344436E-01
   7133.00  9.9787301E-01
   7133.33  1.0328787E+00
   7133.67  1.0553638E+00
   7134.00  1.0627058E+00
   7134.33  1.0519526E+00
   7134.67  1.0265765E+00
   7135.00  9.8919325E-01
   7135.33  9.4239474E-01
   7135.67  8.9068868E-01
   7136.00  8.3656972E-01
   7136.33  7.8230809E-01
   7136.67  7.2964742E-01
   7137.00  6.7974529E-01
   7137.33  6.3417063E-01
   7137.67  5.9332369E-01
   7138.00  5.5781141E-01
   7138.33  5.2886437E-01
   7138.67  5.0597577E-01
   7139.00  4.8907251E-01
   7139.33  4.7843983E-01
   7139.67  4.7266411E-01
   7140.00  4.7096917E-01
   7140.33  4.7278972E-01
   7140.67  4.7685237E-01
   7141.00  4.8252505E-01
   7141.33  4.8937794E-01
   7141.67  4.9689533E-01
   7142.00  5.0485764E-01
   7142.33  5.1312556E-01
   7142.67  5.2153531E-01
   7143.00  5.2998167E-01
   7143.33  5.3831705E-01
   7143.67  5.4639719E-01
   7144.00  5.5407298E-01
   7144.33  5.6109220E-01
   7144.67  5.6735842E-01
   7145.00  5.7274694E-01
   7145.33  5.7702704E-01
   7145.67  5.8026418E-01
   7146.00  5.8245227E-01
   7146.33  5.8350855E-01
   7146.67  5.8364259E-01
   7147.00  5.8294038E-01
   7147.33  5.8142520E-01
   7147.67  5.7931998E-01
   7148.00  5.7674927E-01
   7148.33  5.7382355E-01
   7148.67  5.7073121E-01
   7149.00  5.6759563E-01
   7149.33  5.6456142E-01
   7149.67  5.6173474E-01
   7150.00  5.5920277E-01
   7150.33  5.5709112E-01
   7150.67  5.5540093E-01
   7151.00  5.5415091E-01
   7151.33  5.5339568E-01
   7151.67  5.5306126E-01
   7152.00  5.5312196E-01
   7152.33  5.5359008E-01
   7152.67  5.5439157E-01
   7153.00  5.5550932E-01
   7153.33  5.5697265E-01
   7153.67  5.5874365E-01
   7154.00  5.6082667E-01
   7154.33  5.6326457E-01
   7154.67  5.6601012E-01
   7155.00  5.6904194E-01
   7155.33  5.7234639E-01
   7155.67  5.7582766E-01
   7156.00  5.7941290E-01
   7156.33  5.8300229E-01
   7156.67  5.8648540E-01
   7157.00  5.8976640E-01
   7157.33  5.9270108E-01
   7157.67  5.9523498E-01
   7158.00  5.9730233E-01
   7158.33  5.9877960E-01
   7158.67  5.9969462E-01
   7159.00  6.0002955E-01
   7159.33  5.9970447E-01
   7159.67  5.9879850E-01
   7160.00  5.9732390E-01
   7160.33  5.9523164E-01
   7160.67  5.9261255E-01
   7161.00  5.8948642E-01
   7161.33  5.8581729E-01
   7161.67  5.8169174E-01
   7162.00  5.7713038E-01
   7162.33  5.7210079E-01
   7162.67  5.6667870E-01
   7163.00  5.6089171E-01
   7163.33  5.5473706E-01
   7163.67  5.4829950E-01
   7164.00  5.4162137E-01
   7164.33  5.3473269E-01
   7164.67  5.2771300E-01
   7165.00  5.2061088E-01
   7165.33  5.1347669E-01
   7165.67  5.0636450E-01
   7166.00  4.9931395E-01
   7166.33  4.9237716E-01
   7166.67  4.8557415E-01
   7167.00  4.7892740E-01
   7167.33  4.7247735E-01
   7167.67  4.6621505E-01
   7168.00  4.6014943E-01
   7168.33  4.5431457E-01
   7168.67  4.4869422E-01
   7169.00  4.4330044E-01
   7169.33  4.3817711E-01
   7169.67  4.3330658E-01
   7170.00  4.2870110E-01
   7170.33  4.2441349E-01
   7170.67  4.2043120E-01
   7171.00  4.1678058E-01
   7171.33  4.1355427E-01
   7171.67  4.1078272E-01
   7172.00  4.0856205E-01
