    FDMNES
    energy     <xanes>
   7097.00  5.2143462E-03
   7097.33  5.3409162E-03
   7097.67  5.4733128E-03
   7098.00  5.6119288E-03
   7098.33  5.7581095E-03
   7098.67  5.9115755E-03
   7099.00  6.0728584E-03
   7099.33  6.2437098E-03
   7099.67  6.4238380E-03
   7100.00  6.6139801E-03
   7100.33  6.8164705E-03
   7100.67  7.0310264E-03
   7101.00  7.2586983E-03
   7101.33  7.5026843E-03
   7101.67  7.7627575E-03
   7102.00  8.0404647E-03
   7102.33  8.3403323E-03
   7102.67  8.6622929E-03
   7103.00  9.0087136E-03
   7103.33  9.3862573E-03
   7103.67  9.7952455E-03
   7104.00  1.0239475E-02
   7104.33  1.0729240E-02
   7104.67  1.1265779E-02
   7105.00  1.1855551E-02
   7105.33  1.2515457E-02
   7105.67  1.3248959E-02
   7106.00  1.4067912E-02
   7106.33  1.5002374E-02
   7106.67  1.6061579E-02
   7107.00  1.7269643E-02
   7107.33  1.8686326E-02
   7107.67  2.0337832E-02
   7108.00  2.2281203E-02
   7108.33  2.4657046E-02
   7108.67  2.7553353E-02
   7109.00  3.1142681E-02
   7109.33  3.5866543E-02
   7109.67  4.2139989E-02
   7110.00  5.0771042E-02
   7110.33  6.4002974E-02
   7110.67  8.4086323E-02
   7111.00  1.1224589E-01
   7111.33  1.4569270E-01
   7111.67  1.7918873E-01
   7112.00  2.1748578E-01
   7112.33  2.8231702E-01
   7112.67  3.7982963E-01
   7113.00  5.0406271E-01
   7113.33  6.4029666E-01
   7113.67  7.2898978E-01
   7114.00  7.0103879E-01
   7114.33  5.6992616E-01
   7114.67  4.4101789E-01
   7115.00  3.4665525E-01
   7115.33  2.8750918E-01
   7115.67  2.4972819E-01
   7116.00  2.2734117E-01
   7116.33  2.1707835E-01
   7116.67  2.1288335E-01
   7117.00  2.0926660E-01
   7117.33  2.0067616E-01
   7117.67  1.8781248E-01
   7118.00  1.7329801E-01
   7118.33  1.6019137E-01
   7118.67  1.4972147E-01
   7119.00  1.4193956E-01
   7119.33  1.3662599E-01
   7119.67  1.3289428E-01
   7120.00  1.3024522E-01
   7120.33  1.2825019E-01
   7120.67  1.2654864E-01
   7121.00  1.2514477E-01
   7121.33  1.2425042E-01
   7121.67  1.2390929E-01
   7122.00  1.2416723E-01
   7122.33  1.2527891E-01
   7122.67  1.2731092E-01
   7123.00  1.3028010E-01
   7123.33  1.3421601E-01
   7123.67  1.3891689E-01
   7124.00  1.4435161E-01
   7124.33  1.5074519E-01
   7124.67  1.5833174E-01
   7125.00  1.6754320E-01
   7125.33  1.7921422E-01
   7125.67  1.9360449E-01
   7126.00  2.1108276E-01
   7126.33  2.3224274E-01
   7126.67  2.5635157E-01
   7127.00  2.8259477E-01
   7127.33  3.0981282E-01
   7127.67  3.3704604E-01
   7128.00  3.6439487E-01
   7128.33  3.9288747E-01
   7128.67  4.2311287E-01
   7129.00  4.5503283E-01
   7129.33  4.8869610E-01
   7129.67  5.2483498E-01
   7130.00  5.6479373E-01
   7130.33  6.0973975E-01
   7130.67  6.5837384E-01
   7131.00  7.0967637E-01
   7131.33  7.6295915E-01
   7131.67  8.1741134E-01
   7132.00  8.7255824E-01
   7132.33  9.2763769E-01
   7132.67  9.8130268E-01
   7133.00  1.0314407E+00
   7133.33  1.0730917E+00
   7133.67  1.1018032E+00
   7134.00  1.1129834E+00
   7134.33  1.1009685E+00
   7134.67  1.0693233E+00
   7135.00  1.0219149E+00
   7135.33  9.6356666E-01
   7135.67  9.0109798E-01
   7136.00  8.3813339E-01
   7136.33  7.7778520E-01
   7136.67  7.2146916E-01
   7137.00  6.7008850E-01
   7137.33  6.2502878E-01
   7137.67  5.8604377E-01
   7138.00  5.5339586E-01
   7138.33  5.2801109E-01
   7138.67  5.0890380E-01
   7139.00  4.9562637E-01
   7139.33  4.8794767E-01
   7139.67  4.8414964E-01
   7140.00  4.8326103E-01
   7140.33  4.8456400E-01
   7140.67  4.8715886E-01
   7141.00  4.9072779E-01
   7141.33  4.9520127E-01
   7141.67  5.0041535E-01
   7142.00  5.0633166E-01
   7142.33  5.1295600E-01
   7142.67  5.2008850E-01
   7143.00  5.2758749E-01
   7143.33  5.3527837E-01
   7143.67  5.4292823E-01
   7144.00  5.5035706E-01
   7144.33  5.5732011E-01
   7144.67  5.6370528E-01
   7145.00  5.6939932E-01
   7145.33  5.7419911E-01
   7145.67  5.7812895E-01
   7146.00  5.8115238E-01
   7146.33  5.8314557E-01
   7146.67  5.8424448E-01
   7147.00  5.8448840E-01
   7147.33  5.8384633E-01
   7147.67  5.8250359E-01
   7148.00  5.8054706E-01
   7148.33  5.7802633E-01
   7148.67  5.7512466E-01
   7149.00  5.7194900E-01
   7149.33  5.6860519E-01
   7149.67  5.6523237E-01
   7150.00  5.6192979E-01
   7150.33  5.5882982E-01
   7150.67  5.5600422E-01
   7151.00  5.5352010E-01
   7151.33  5.5149379E-01
   7151.67  5.4992707E-01
   7152.00  5.4885620E-01
   7152.33  5.4838086E-01
   7152.67  5.4846003E-01
   7153.00  5.4910848E-01
   7153.33  5.5040691E-01
   7153.67  5.5228042E-01
   7154.00  5.5471529E-01
   7154.33  5.5774376E-01
   7154.67  5.6124256E-01
   7155.00  5.6514119E-01
   7155.33  5.6936899E-01
   7155.67  5.7375760E-01
   7156.00  5.7817920E-01
   7156.33  5.8246156E-01
   7156.67  5.8646623E-01
   7157.00  5.9007203E-01
   7157.33  5.9309469E-01
   7157.67  5.9550897E-01
   7158.00  5.9726322E-01
   7158.33  5.9824007E-01
   7158.67  5.9852250E-01
   7159.00  5.9812545E-01
   7159.33  5.9699982E-01
   7159.67  5.9526830E-01
   7160.00  5.9297061E-01
   7160.33  5.9008849E-01
   7160.67  5.8673132E-01
   7161.00  5.8293366E-01
   7161.33  5.7867905E-01
   7161.67  5.7405056E-01
   7162.00  5.6907602E-01
   7162.33  5.6374378E-01
   7162.67  5.5811738E-01
   7163.00  5.5222021E-01
   7163.33  5.4605354E-01
   7163.67  5.3968113E-01
   7164.00  5.3313388E-01
   7164.33  5.2643194E-01
   7164.67  5.1963029E-01
   7165.00  5.1276150E-01
   7165.33  5.0585995E-01
   7165.67  4.9896635E-01
   7166.00  4.9211130E-01
   7166.33  4.8533759E-01
   7166.67  4.7866640E-01
   7167.00  4.7212024E-01
   7167.33  4.6574127E-01
   7167.67  4.5953402E-01
   7168.00  4.5351670E-01
   7168.33  4.4773459E-01
   7168.67  4.4218138E-01
   7169.00  4.3687530E-01
   7169.33  4.3187162E-01
   7169.67  4.2715630E-01
   7170.00  4.2274308E-01
   7170.33  4.1868677E-01
   7170.67  4.1496568E-01
   7171.00  4.1159832E-01
   7171.33  4.0866380E-01
   7171.67  4.0616841E-01
   7172.00  4.0417986E-01
