    FDMNES
    energy     <xanes>
   7097.00  4.3151183E-03
   7097.33  4.4008276E-03
   7097.67  4.4899388E-03
   7098.00  4.5826681E-03
   7098.33  4.6797806E-03
   7098.67  4.7810993E-03
   7099.00  4.8869186E-03
   7099.33  4.9982313E-03
   7099.67  5.1148579E-03
   7100.00  5.2372119E-03
   7100.33  5.3666204E-03
   7100.67  5.5029192E-03
   7101.00  5.6467106E-03
   7101.33  5.7998331E-03
   7101.67  5.9621780E-03
   7102.00  6.1346614E-03
   7102.33  6.3199442E-03
   7102.67  6.5180647E-03
   7103.00  6.7304903E-03
   7103.33  6.9612867E-03
   7103.67  7.2108530E-03
   7104.00  7.4816971E-03
   7104.33  7.7804667E-03
   7104.67  8.1084556E-03
   7105.00  8.4703108E-03
   7105.33  8.8778923E-03
   7105.67  9.3348407E-03
   7106.00  9.8507214E-03
   7106.33  1.0449270E-02
   7106.67  1.1140966E-02
   7107.00  1.1948491E-02
   7107.33  1.2927473E-02
   7107.67  1.4111878E-02
   7108.00  1.5567469E-02
   7108.33  1.7458251E-02
   7108.67  1.9922335E-02
   7109.00  2.3218451E-02
   7109.33  2.8038060E-02
   7109.67  3.5207453E-02
   7110.00  4.6354010E-02
   7110.33  6.6219993E-02
   7110.67  1.0000273E-01
   7111.00  1.4892283E-01
   7111.33  1.9483214E-01
   7111.67  2.0794758E-01
   7112.00  1.8048210E-01
   7112.33  1.4112695E-01
   7112.67  1.0996204E-01
   7113.00  8.7469855E-02
   7113.33  7.3179064E-02
   7113.67  6.5496564E-02
   7114.00  6.3082592E-02
   7114.33  6.4838641E-02
   7114.67  7.2106817E-02
   7115.00  8.7005665E-02
   7115.33  1.0995564E-01
   7115.67  1.3080888E-01
   7116.00  1.3598990E-01
   7116.33  1.2218992E-01
   7116.67  1.0493180E-01
   7117.00  9.1505038E-02
   7117.33  8.4297302E-02
   7117.67  8.1972103E-02
   7118.00  8.3706457E-02
   7118.33  8.8350054E-02
   7118.67  9.3271256E-02
   7119.00  9.6576321E-02
   7119.33  9.7130200E-02
   7119.67  9.5915354E-02
   7120.00  9.4099447E-02
   7120.33  9.3032168E-02
   7120.67  9.3434277E-02
   7121.00  9.5733883E-02
   7121.33  1.0062796E-01
   7121.67  1.0817385E-01
   7122.00  1.1860321E-01
   7122.33  1.3244655E-01
   7122.67  1.4923783E-01
   7123.00  1.6865275E-01
   7123.33  1.9055043E-01
   7123.67  2.1455493E-01
   7124.00  2.4058058E-01
   7124.33  2.6761607E-01
   7124.67  2.9323680E-01
   7125.00  3.1590773E-01
   7125.33  3.3564128E-01
   7125.67  3.5514037E-01
   7126.00  3.7600449E-01
   7126.33  3.9778235E-01
   7126.67  4.1953279E-01
   7127.00  4.4163209E-01
   7127.33  4.6343085E-01
   7127.67  4.8258186E-01
   7128.00  4.9819412E-01
   7128.33  5.1209442E-01
   7128.67  5.2722778E-01
   7129.00  5.4510530E-01
   7129.33  5.6726400E-01
   7129.67  5.9371869E-01
   7130.00  6.2419333E-01
   7130.33  6.5738288E-01
   7130.67  6.9033498E-01
   7131.00  7.2172264E-01
   7131.33  7.5259923E-01
   7131.67  7.8438705E-01
   7132.00  8.1626322E-01
   7132.33  8.4475802E-01
   7132.67  8.6649679E-01
   7133.00  8.7990739E-01
   7133.33  8.8599499E-01
   7133.67  8.8912998E-01
   7134.00  8.9087578E-01
   7134.33  8.9015822E-01
   7134.67  8.8533795E-01
   7135.00  8.7546636E-01
   7135.33  8.6056960E-01
   7135.67  8.4332794E-01
   7136.00  8.2605817E-01
   7136.33  8.1138659E-01
   7136.67  8.0036440E-01
   7137.00  7.9317605E-01
   7137.33  7.8936384E-01
   7137.67  7.8683012E-01
   7138.00  7.8365710E-01
   7138.33  7.7715353E-01
   7138.67  7.6581027E-01
   7139.00  7.4880734E-01
   7139.33  7.2584160E-01
   7139.67  6.9933653E-01
   7140.00  6.7146991E-01
   7140.33  6.4480042E-01
   7140.67  6.2080021E-01
   7141.00  6.0003962E-01
   7141.33  5.8286861E-01
   7141.67  5.6841898E-01
   7142.00  5.5616458E-01
   7142.33  5.4567203E-01
   7142.67  5.3615116E-01
   7143.00  5.2714771E-01
   7143.33  5.1826780E-01
   7143.67  5.0930003E-01
   7144.00  5.0027718E-01
   7144.33  4.9145642E-01
   7144.67  4.8314923E-01
   7145.00  4.7562087E-01
   7145.33  4.6922374E-01
   7145.67  4.6397020E-01
   7146.00  4.5991247E-01
   7146.33  4.5719064E-01
   7146.67  4.5558885E-01
   7147.00  4.5501703E-01
   7147.33  4.5545772E-01
   7147.67  4.5664391E-01
   7148.00  4.5842295E-01
   7148.33  4.6064054E-01
   7148.67  4.6300555E-01
   7149.00  4.6527318E-01
   7149.33  4.6707580E-01
   7149.67  4.6815576E-01
   7150.00  4.6828208E-01
   7150.33  4.6712158E-01
   7150.67  4.6476167E-01
   7151.00  4.6129213E-01
   7151.33  4.5688372E-01
   7151.67  4.5208159E-01
   7152.00  4.4736157E-01
   7152.33  4.4340647E-01
   7152.67  4.4068214E-01
   7153.00  4.3954483E-01
   7153.33  4.4042086E-01
   7153.67  4.4303192E-01
   7154.00  4.4714069E-01
   7154.33  4.5242449E-01
   7154.67  4.5818659E-01
   7155.00  4.6392694E-01
   7155.33  4.6906120E-01
   7155.67  4.7325916E-01
   7156.00  4.7628023E-01
   7156.33  4.7776675E-01
   7156.67  4.7777503E-01
   7157.00  4.7625602E-01
   7157.33  4.7302737E-01
   7157.67  4.6837283E-01
   7158.00  4.6245011E-01
   7158.33  4.5540378E-01
   7158.67  4.4770045E-01
   7159.00  4.3966852E-01
   7159.33  4.3171026E-01
   7159.67  4.2419672E-01
   7160.00  4.1742324E-01
   7160.33  4.1181336E-01
   7160.67  4.0747127E-01
   7161.00  4.0454527E-01
   7161.33  4.0333663E-01
   7161.67  4.0370534E-01
   7162.00  4.0566028E-01
   7162.33  4.0937655E-01
   7162.67  4.1460708E-01
   7163.00  4.2127742E-01
   7163.33  4.2941937E-01
   7163.67  4.3868004E-01
   7164.00  4.4884070E-01
   7164.33  4.5963999E-01
   7164.67  4.7058776E-01
   7165.00  4.8126405E-01
   7165.33  4.9104095E-01
   7165.67  4.9950257E-01
   7166.00  5.0626928E-01
   7166.33  5.1078853E-01
   7166.67  5.1321027E-01
   7167.00  5.1363322E-01
   7167.33  5.1215468E-01
   7167.67  5.0944547E-01
   7168.00  5.0597102E-01
   7168.33  5.0226286E-01
   7168.67  4.9885351E-01
   7169.00  4.9609441E-01
   7169.33  4.9438501E-01
   7169.67  4.9374516E-01
   7170.00  4.9418058E-01
   7170.33  4.9570898E-01
   7170.67  4.9801245E-01
   7171.00  5.0086815E-01
   7171.33  5.0399663E-01
   7171.67  5.0699730E-01
   7172.00  5.0951088E-01
