    FDMNES
    energy     <xanes>
   7097.00  4.5918516E-03
   7097.33  4.6822659E-03
   7097.67  4.7760715E-03
   7098.00  4.8734687E-03
   7098.33  4.9751945E-03
   7098.67  5.0810522E-03
   7099.00  5.1913102E-03
   7099.33  5.3069095E-03
   7099.67  5.4276458E-03
   7100.00  5.5538915E-03
   7100.33  5.6868832E-03
   7100.67  5.8264246E-03
   7101.00  5.9730516E-03
   7101.33  6.1284505E-03
   7101.67  6.2924677E-03
   7102.00  6.4659121E-03
   7102.33  6.6511907E-03
   7102.67  6.8482746E-03
   7103.00  7.0584555E-03
   7103.33  7.2853756E-03
   7103.67  7.5293260E-03
   7104.00  7.7925209E-03
   7104.33  8.0808967E-03
   7104.67  8.3955626E-03
   7105.00  8.7406669E-03
   7105.33  9.1268606E-03
   7105.67  9.5574629E-03
   7106.00  1.0041188E-02
   7106.33  1.0599723E-02
   7106.67  1.1243034E-02
   7107.00  1.1992441E-02
   7107.33  1.2900396E-02
   7107.67  1.4000565E-02
   7108.00  1.5357554E-02
   7108.33  1.7133596E-02
   7108.67  1.9472504E-02
   7109.00  2.2643806E-02
   7109.33  2.7377494E-02
   7109.67  3.4587432E-02
   7110.00  4.6092686E-02
   7110.33  6.7319226E-02
   7110.67  1.0461324E-01
   7111.00  1.5751818E-01
   7111.33  1.7987299E-01
   7111.67  1.5294974E-01
   7112.00  1.1101647E-01
   7112.33  8.2010940E-02
   7112.67  6.6032595E-02
   7113.00  5.6780258E-02
   7113.33  4.9668025E-02
   7113.67  4.3854003E-02
   7114.00  3.9799991E-02
   7114.33  3.7224786E-02
   7114.67  3.5679224E-02
   7115.00  3.5038178E-02
   7115.33  3.5168739E-02
   7115.67  3.5820529E-02
   7116.00  3.6930040E-02
   7116.33  3.8545716E-02
   7116.67  4.0641271E-02
   7117.00  4.3266096E-02
   7117.33  4.6580234E-02
   7117.67  5.0622479E-02
   7118.00  5.5525644E-02
   7118.33  6.1630910E-02
   7118.67  6.9074415E-02
   7119.00  7.8120466E-02
   7119.33  8.9292201E-02
   7119.67  1.0257930E-01
   7120.00  1.1819179E-01
   7120.33  1.3678274E-01
   7120.67  1.5828766E-01
   7121.00  1.8291954E-01
   7121.33  2.1179821E-01
   7121.67  2.4560740E-01
   7122.00  2.8523985E-01
   7122.33  3.3159602E-01
   7122.67  3.8302215E-01
   7123.00  4.3909912E-01
   7123.33  5.0219218E-01
   7123.67  5.7282546E-01
   7124.00  6.4918128E-01
   7124.33  7.2633530E-01
   7124.67  7.9826606E-01
   7125.00  8.6060280E-01
   7125.33  9.0850282E-01
   7125.67  9.4244081E-01
   7126.00  9.6300944E-01
   7126.33  9.7078901E-01
   7126.67  9.6875282E-01
   7127.00  9.5747298E-01
   7127.33  9.3794201E-01
   7127.67  9.1454002E-01
   7128.00  8.9056501E-01
   7128.33  8.7013915E-01
   7128.67  8.5557275E-01
   7129.00  8.4653061E-01
   7129.33  8.3781969E-01
   7129.67  8.2207586E-01
   7130.00  7.9672600E-01
   7130.33  7.6472826E-01
   7130.67  7.3328372E-01
   7131.00  7.0636439E-01
   7131.33  6.8617309E-01
   7131.67  6.7078503E-01
   7132.00  6.5825314E-01
   7132.33  6.4633388E-01
   7132.67  6.3314867E-01
   7133.00  6.1855719E-01
   7133.33  6.0510929E-01
   7133.67  5.9547219E-01
   7134.00  5.9043953E-01
   7134.33  5.8945708E-01
   7134.67  5.8937710E-01
   7135.00  5.8762878E-01
   7135.33  5.8284498E-01
   7135.67  5.7673958E-01
   7136.00  5.7092320E-01
   7136.33  5.6659328E-01
   7136.67  5.6381532E-01
   7137.00  5.6252399E-01
   7137.33  5.6269125E-01
   7137.67  5.6386028E-01
   7138.00  5.6569427E-01
   7138.33  5.6775626E-01
   7138.67  5.6955254E-01
   7139.00  5.7073436E-01
   7139.33  5.7087565E-01
   7139.67  5.6992299E-01
   7140.00  5.6785155E-01
   7140.33  5.6461127E-01
   7140.67  5.6048135E-01
   7141.00  5.5560920E-01
   7141.33  5.5008339E-01
   7141.67  5.4410766E-01
   7142.00  5.3776930E-01
   7142.33  5.3110814E-01
   7142.67  5.2420618E-01
   7143.00  5.1708226E-01
   7143.33  5.0971353E-01
   7143.67  5.0212007E-01
   7144.00  4.9429215E-01
   7144.33  4.8618860E-01
   7144.67  4.7783641E-01
   7145.00  4.6924209E-01
   7145.33  4.6039991E-01
   7145.67  4.5137720E-01
   7146.00  4.4222274E-01
   7146.33  4.3300016E-01
   7146.67  4.2379971E-01
   7147.00  4.1469691E-01
   7147.33  4.0580126E-01
   7147.67  3.9716847E-01
   7148.00  3.8885564E-01
   7148.33  3.8095957E-01
   7148.67  3.7346635E-01
   7149.00  3.6638838E-01
   7149.33  3.5977346E-01
   7149.67  3.5355054E-01
   7150.00  3.4769379E-01
   7150.33  3.4220775E-01
   7150.67  3.3701239E-01
   7151.00  3.3207650E-01
   7151.33  3.2739876E-01
   7151.67  3.2293102E-01
   7152.00  3.1866506E-01
   7152.33  3.1462335E-01
   7152.67  3.1078723E-01
   7153.00  3.0717220E-01
   7153.33  3.0383964E-01
   7153.67  3.0079762E-01
   7154.00  2.9808525E-01
   7154.33  2.9579778E-01
   7154.67  2.9393576E-01
   7155.00  2.9253786E-01
   7155.33  2.9170538E-01
   7155.67  2.9140354E-01
   7156.00  2.9164603E-01
   7156.33  2.9250363E-01
   7156.67  2.9390131E-01
   7157.00  2.9582815E-01
   7157.33  2.9832869E-01
   7157.67  3.0131522E-01
   7158.00  3.0476606E-01
   7158.33  3.0871216E-01
   7158.67  3.1307358E-01
   7159.00  3.1782737E-01
   7159.33  3.2300163E-01
   7159.67  3.2854101E-01
   7160.00  3.3444259E-01
   7160.33  3.4075258E-01
   7160.67  3.4742999E-01
   7161.00  3.5447991E-01
   7161.33  3.6195460E-01
   7161.67  3.6980669E-01
   7162.00  3.7802823E-01
   7162.33  3.8664177E-01
   7162.67  3.9556706E-01
   7163.00  4.0475822E-01
   7163.33  4.1417106E-01
   7163.67  4.2370115E-01
   7164.00  4.3327629E-01
   7164.33  4.4280780E-01
   7164.67  4.5221467E-01
   7165.00  4.6142342E-01
   7165.33  4.7033290E-01
   7165.67  4.7892363E-01
   7166.00  4.8715689E-01
   7166.33  4.9494560E-01
   7166.67  5.0230823E-01
   7167.00  5.0922203E-01
   7167.33  5.1560619E-01
   7167.67  5.2150254E-01
   7168.00  5.2689901E-01
   7168.33  5.3171575E-01
   7168.67  5.3600399E-01
   7169.00  5.3976259E-01
   7169.33  5.4293289E-01
   7169.67  5.4559338E-01
   7170.00  5.4776202E-01
   7170.33  5.4940875E-01
   7170.67  5.5062777E-01
   7171.00  5.5146406E-01
   7171.33  5.5194936E-01
   7171.67  5.5221839E-01
   7172.00  5.5238347E-01
