    FDMNES
    energy     <xanes>
   7097.00  5.2570677E-03
   7097.33  5.3858979E-03
   7097.67  5.5207103E-03
   7098.00  5.6619163E-03
   7098.33  5.8109121E-03
   7098.67  5.9674242E-03
   7099.00  6.1320160E-03
   7099.33  6.3065218E-03
   7099.67  6.4906656E-03
   7100.00  6.6852405E-03
   7100.33  6.8927222E-03
   7100.67  7.1128638E-03
   7101.00  7.3468184E-03
   7101.33  7.5980365E-03
   7101.67  7.8663701E-03
   7102.00  8.1535614E-03
   7102.33  8.4646101E-03
   7102.67  8.7996223E-03
   7103.00  9.1613560E-03
   7103.33  9.5574075E-03
   7103.67  9.9884942E-03
   7104.00  1.0459239E-02
   7104.33  1.0981889E-02
   7104.67  1.1558638E-02
   7105.00  1.2197814E-02
   7105.33  1.2920731E-02
   7105.67  1.3733328E-02
   7106.00  1.4652090E-02
   7106.33  1.5718064E-02
   7106.67  1.6947657E-02
   7107.00  1.8377973E-02
   7107.33  2.0100036E-02
   7107.67  2.2164393E-02
   7108.00  2.4671578E-02
   7108.33  2.7870758E-02
   7108.67  3.1954901E-02
   7109.00  3.7288455E-02
   7109.33  4.4831724E-02
   7109.67  5.5662736E-02
   7110.00  7.1892023E-02
   7110.33  9.9541578E-02
   7110.67  1.4455214E-01
   7111.00  2.0657340E-01
   7111.33  2.6736230E-01
   7111.67  3.2036192E-01
   7112.00  3.6851386E-01
   7112.33  4.1385134E-01
   7112.67  4.3990619E-01
   7113.00  4.2913110E-01
   7113.33  3.7804828E-01
   7113.67  3.0925015E-01
   7114.00  2.4624146E-01
   7114.33  2.0110571E-01
   7114.67  1.7068874E-01
   7115.00  1.5150912E-01
   7115.33  1.4074992E-01
   7115.67  1.3506508E-01
   7116.00  1.3400519E-01
   7116.33  1.3985325E-01
   7116.67  1.5476561E-01
   7117.00  1.8073916E-01
   7117.33  2.1150654E-01
   7117.67  2.2154649E-01
   7118.00  2.0081035E-01
   7118.33  1.7040166E-01
   7118.67  1.4868216E-01
   7119.00  1.3793354E-01
   7119.33  1.3739582E-01
   7119.67  1.4407670E-01
   7120.00  1.5702589E-01
   7120.33  1.7581253E-01
   7120.67  1.9865961E-01
   7121.00  2.2518523E-01
   7121.33  2.5423702E-01
   7121.67  2.8233991E-01
   7122.00  3.0805171E-01
   7122.33  3.3242291E-01
   7122.67  3.5813848E-01
   7123.00  3.8686728E-01
   7123.33  4.1939065E-01
   7123.67  4.5470282E-01
   7124.00  4.9231134E-01
   7124.33  5.3167021E-01
   7124.67  5.7095567E-01
   7125.00  6.0844254E-01
   7125.33  6.4183440E-01
   7125.67  6.6922711E-01
   7126.00  6.8868379E-01
   7126.33  6.9929417E-01
   7126.67  7.0523313E-01
   7127.00  7.0992932E-01
   7127.33  7.1584424E-01
   7127.67  7.2260321E-01
   7128.00  7.2868957E-01
   7128.33  7.3257465E-01
   7128.67  7.3426347E-01
   7129.00  7.3310096E-01
   7129.33  7.2645316E-01
   7129.67  7.1356378E-01
   7130.00  6.9549681E-01
   7130.33  6.7536528E-01
   7130.67  6.5693961E-01
   7131.00  6.4230645E-01
   7131.33  6.3322597E-01
   7131.67  6.2916466E-01
   7132.00  6.2957888E-01
   7132.33  6.3365372E-01
   7132.67  6.3926727E-01
   7133.00  6.4479850E-01
   7133.33  6.4845813E-01
   7133.67  6.4963226E-01
   7134.00  6.4826381E-01
   7134.33  6.4442724E-01
   7134.67  6.3878019E-01
   7135.00  6.3151997E-01
   7135.33  6.2261328E-01
   7135.67  6.1251124E-01
   7136.00  6.0163096E-01
   7136.33  5.9063690E-01
   7136.67  5.8025791E-01
   7137.00  5.7094521E-01
   7137.33  5.6308952E-01
   7137.67  5.5645934E-01
   7138.00  5.5081261E-01
   7138.33  5.4580567E-01
   7138.67  5.4088617E-01
   7139.00  5.3564171E-01
   7139.33  5.2957667E-01
   7139.67  5.2255169E-01
   7140.00  5.1456161E-01
   7140.33  5.0572865E-01
   7140.67  4.9652269E-01
   7141.00  4.8730332E-01
   7141.33  4.7847610E-01
   7141.67  4.7023973E-01
   7142.00  4.6269727E-01
   7142.33  4.5596359E-01
   7142.67  4.4991874E-01
   7143.00  4.4452582E-01
   7143.33  4.3982358E-01
   7143.67  4.3570138E-01
   7144.00  4.3212581E-01
   7144.33  4.2911321E-01
   7144.67  4.2655680E-01
   7145.00  4.2442131E-01
   7145.33  4.2271379E-01
   7145.67  4.2134971E-01
   7146.00  4.2030128E-01
   7146.33  4.1957368E-01
   7146.67  4.1909761E-01
   7147.00  4.1883725E-01
   7147.33  4.1875913E-01
   7147.67  4.1877568E-01
   7148.00  4.1882073E-01
   7148.33  4.1880841E-01
   7148.67  4.1867541E-01
   7149.00  4.1838196E-01
   7149.33  4.1789375E-01
   7149.67  4.1725908E-01
   7150.00  4.1653185E-01
   7150.33  4.1580341E-01
   7150.67  4.1518309E-01
   7151.00  4.1476774E-01
   7151.33  4.1470030E-01
   7151.67  4.1502287E-01
   7152.00  4.1577411E-01
   7152.33  4.1700674E-01
   7152.67  4.1860868E-01
   7153.00  4.2047972E-01
   7153.33  4.2246321E-01
   7153.67  4.2434222E-01
   7154.00  4.2593916E-01
   7154.33  4.2702183E-01
   7154.67  4.2753253E-01
   7155.00  4.2742839E-01
   7155.33  4.2664112E-01
   7155.67  4.2529911E-01
   7156.00  4.2346814E-01
   7156.33  4.2118285E-01
   7156.67  4.1857660E-01
   7157.00  4.1571460E-01
   7157.33  4.1264167E-01
   7157.67  4.0944120E-01
   7158.00  4.0615821E-01
   7158.33  4.0283336E-01
   7158.67  3.9951008E-01
   7159.00  3.9621735E-01
   7159.33  3.9299294E-01
   7159.67  3.8985566E-01
   7160.00  3.8682487E-01
   7160.33  3.8393826E-01
   7160.67  3.8120070E-01
   7161.00  3.7862947E-01
   7161.33  3.7626954E-01
   7161.67  3.7411566E-01
   7162.00  3.7218021E-01
   7162.33  3.7050354E-01
   7162.67  3.6906343E-01
   7163.00  3.6786629E-01
   7163.33  3.6695592E-01
   7163.67  3.6631406E-01
   7164.00  3.6595300E-01
   7164.33  3.6592400E-01
   7164.67  3.6620446E-01
   7165.00  3.6680667E-01
   7165.33  3.6778619E-01
   7165.67  3.6911298E-01
   7166.00  3.7079461E-01
   7166.33  3.7288138E-01
   7166.67  3.7532901E-01
   7167.00  3.7813366E-01
   7167.33  3.8132769E-01
   7167.67  3.8484866E-01
   7168.00  3.8867310E-01
   7168.33  3.9279947E-01
   7168.67  3.9715122E-01
   7169.00  4.0168640E-01
   7169.33  4.0636920E-01
   7169.67  4.1113006E-01
   7170.00  4.1592372E-01
   7170.33  4.2069424E-01
   7170.67  4.2538493E-01
   7171.00  4.2993170E-01
   7171.33  4.3419091E-01
   7171.67  4.3800069E-01
   7172.00  4.4111086E-01
