    FDMNES
    energy     <xanes>
   7097.00  5.2411256E-03
   7097.33  5.3665272E-03
   7097.67  5.4977611E-03
   7098.00  5.6352394E-03
   7098.33  5.7803423E-03
   7098.67  5.9328205E-03
   7099.00  6.0932458E-03
   7099.33  6.2634522E-03
   7099.67  6.4431999E-03
   7100.00  6.6333075E-03
   7100.33  6.8362872E-03
   7100.67  7.0519511E-03
   7101.00  7.2815148E-03
   7101.33  7.5285480E-03
   7101.67  7.7930083E-03
   7102.00  8.0767817E-03
   7102.33  8.3851715E-03
   7102.67  8.7184920E-03
   7103.00  9.0798286E-03
   7103.33  9.4775047E-03
   7103.67  9.9126888E-03
   7104.00  1.0390769E-02
   7104.33  1.0925741E-02
   7104.67  1.1520876E-02
   7105.00  1.2186397E-02
   7105.33  1.2948008E-02
   7105.67  1.3814544E-02
   7106.00  1.4807586E-02
   7106.33  1.5980224E-02
   7106.67  1.7357747E-02
   7107.00  1.8992864E-02
   7107.33  2.1014454E-02
   7107.67  2.3505711E-02
   7108.00  2.6625014E-02
   7108.33  3.0768581E-02
   7108.67  3.6285184E-02
   7109.00  4.3826646E-02
   7109.33  5.5151989E-02
   7109.67  7.2442979E-02
   7110.00  1.0003498E-01
   7110.33  1.5086513E-01
   7110.67  2.4039348E-01
   7111.00  3.6887748E-01
   7111.33  4.2391529E-01
   7111.67  3.6659699E-01
   7112.00  2.9462624E-01
   7112.33  2.4695308E-01
   7112.67  2.0740644E-01
   7113.00  1.7519220E-01
   7113.33  1.5748633E-01
   7113.67  1.4693249E-01
   7114.00  1.3278999E-01
   7114.33  1.1463113E-01
   7114.67  1.0141151E-01
   7115.00  9.4925216E-02
   7115.33  9.2566898E-02
   7115.67  8.8600040E-02
   7116.00  8.2198280E-02
   7116.33  7.7289332E-02
   7116.67  7.5820420E-02
   7117.00  7.7859845E-02
   7117.33  8.3690024E-02
   7117.67  9.3049741E-02
   7118.00  1.0632263E-01
   7118.33  1.2497884E-01
   7118.67  1.5000121E-01
   7119.00  1.8317069E-01
   7119.33  2.2758936E-01
   7119.67  2.8099199E-01
   7120.00  3.3594612E-01
   7120.33  3.7594276E-01
   7120.67  3.9500522E-01
   7121.00  3.9743633E-01
   7121.33  3.9290897E-01
   7121.67  3.9105182E-01
   7122.00  3.9591635E-01
   7122.33  4.0848086E-01
   7122.67  4.2508015E-01
   7123.00  4.4333704E-01
   7123.33  4.6152537E-01
   7123.67  4.7843192E-01
   7124.00  4.9358900E-01
   7124.33  5.0761511E-01
   7124.67  5.2200701E-01
   7125.00  5.3735249E-01
   7125.33  5.5310418E-01
   7125.67  5.6859419E-01
   7126.00  5.8526070E-01
   7126.33  6.0602622E-01
   7126.67  6.3056035E-01
   7127.00  6.5763013E-01
   7127.33  6.8577977E-01
   7127.67  7.1331913E-01
   7128.00  7.3883878E-01
   7128.33  7.6001332E-01
   7128.67  7.7537129E-01
   7129.00  7.8359561E-01
   7129.33  7.8304224E-01
   7129.67  7.7495583E-01
   7130.00  7.6035949E-01
   7130.33  7.4083787E-01
   7130.67  7.1948352E-01
   7131.00  6.9810441E-01
   7131.33  6.7815382E-01
   7131.67  6.6010826E-01
   7132.00  6.4425575E-01
   7132.33  6.3109348E-01
   7132.67  6.2037065E-01
   7133.00  6.1196284E-01
   7133.33  6.0574724E-01
   7133.67  6.0090352E-01
   7134.00  5.9682046E-01
   7134.33  5.9282499E-01
   7134.67  5.8867451E-01
   7135.00  5.8487250E-01
   7135.33  5.8261488E-01
   7135.67  5.8210330E-01
   7136.00  5.8281299E-01
   7136.33  5.8377647E-01
   7136.67  5.8417918E-01
   7137.00  5.8367830E-01
   7137.33  5.8205843E-01
   7137.67  5.7954094E-01
   7138.00  5.7627058E-01
   7138.33  5.7235772E-01
   7138.67  5.6803736E-01
   7139.00  5.6341459E-01
   7139.33  5.5851436E-01
   7139.67  5.5333379E-01
   7140.00  5.4777436E-01
   7140.33  5.4160308E-01
   7140.67  5.3472957E-01
   7141.00  5.2707827E-01
   7141.33  5.1857746E-01
   7141.67  5.0946556E-01
   7142.00  4.9994933E-01
   7142.33  4.9031713E-01
   7142.67  4.8089830E-01
   7143.00  4.7193989E-01
   7143.33  4.6375625E-01
   7143.67  4.5641284E-01
   7144.00  4.4998128E-01
   7144.33  4.4460941E-01
   7144.67  4.4017263E-01
   7145.00  4.3664985E-01
   7145.33  4.3411729E-01
   7145.67  4.3242073E-01
   7146.00  4.3150735E-01
   7146.33  4.3137722E-01
   7146.67  4.3182649E-01
   7147.00  4.3273298E-01
   7147.33  4.3397693E-01
   7147.67  4.3536450E-01
   7148.00  4.3677822E-01
   7148.33  4.3810941E-01
   7148.67  4.3931949E-01
   7149.00  4.4040895E-01
   7149.33  4.4139995E-01
   7149.67  4.4235733E-01
   7150.00  4.4333422E-01
   7150.33  4.4439910E-01
   7150.67  4.4558895E-01
   7151.00  4.4693108E-01
   7151.33  4.4846316E-01
   7151.67  4.5016424E-01
   7152.00  4.5202143E-01
   7152.33  4.5402050E-01
   7152.67  4.5610077E-01
   7153.00  4.5821208E-01
   7153.33  4.6027267E-01
   7153.67  4.6219665E-01
   7154.00  4.6389885E-01
   7154.33  4.6523717E-01
   7154.67  4.6615424E-01
   7155.00  4.6657873E-01
   7155.33  4.6638712E-01
   7155.67  4.6563215E-01
   7156.00  4.6433230E-01
   7156.33  4.6247847E-01
   7156.67  4.6022418E-01
   7157.00  4.5767288E-01
   7157.33  4.5493137E-01
   7157.67  4.5214256E-01
   7158.00  4.4939934E-01
   7158.33  4.4680774E-01
   7158.67  4.4441778E-01
   7159.00  4.4227132E-01
   7159.33  4.4043797E-01
   7159.67  4.3890633E-01
   7160.00  4.3768944E-01
   7160.33  4.3683718E-01
   7160.67  4.3631441E-01
   7161.00  4.3612351E-01
   7161.33  4.3630180E-01
   7161.67  4.3679728E-01
   7162.00  4.3759582E-01
   7162.33  4.3870909E-01
   7162.67  4.4007361E-01
   7163.00  4.4166106E-01
   7163.33  4.4345388E-01
   7163.67  4.4538601E-01
   7164.00  4.4742086E-01
   7164.33  4.4952305E-01
   7164.67  4.5164319E-01
   7165.00  4.5374977E-01
   7165.33  4.5580549E-01
   7165.67  4.5778895E-01
   7166.00  4.5968171E-01
   7166.33  4.6145494E-01
   7166.67  4.6311186E-01
   7167.00  4.6464717E-01
   7167.33  4.6604170E-01
   7167.67  4.6730986E-01
   7168.00  4.6845211E-01
   7168.33  4.6945452E-01
   7168.67  4.7033493E-01
   7169.00  4.7109614E-01
   7169.33  4.7172824E-01
   7169.67  4.7225093E-01
   7170.00  4.7266965E-01
   7170.33  4.7298019E-01
   7170.67  4.7320460E-01
   7171.00  4.7335333E-01
   7171.33  4.7343382E-01
   7171.67  4.7347398E-01
   7172.00  4.7349637E-01
