    FDMNES
    energy     <xanes>
   7097.00  5.3069089E-03
   7097.33  5.4420959E-03
   7097.67  5.5838507E-03
   7098.00  5.7326460E-03
   7098.33  5.8900504E-03
   7098.67  6.0557933E-03
   7099.00  6.2305305E-03
   7099.33  6.4163501E-03
   7099.67  6.6129906E-03
   7100.00  6.8213885E-03
   7100.33  7.0444044E-03
   7100.67  7.2818307E-03
   7101.00  7.5350514E-03
   7101.33  7.8081218E-03
   7101.67  8.1009868E-03
   7102.00  8.4157763E-03
   7102.33  8.7584822E-03
   7102.67  9.1294204E-03
   7103.00  9.5320340E-03
   7103.33  9.9756359E-03
   7103.67  1.0461419E-02
   7104.00  1.0995296E-02
   7104.33  1.1592686E-02
   7104.67  1.2256902E-02
   7105.00  1.2998900E-02
   7105.33  1.3846358E-02
   7105.67  1.4808050E-02
   7106.00  1.5906389E-02
   7106.33  1.7196677E-02
   7106.67  1.8703288E-02
   7107.00  2.0478667E-02
   7107.33  2.2650952E-02
   7107.67  2.5296919E-02
   7108.00  2.8565294E-02
   7108.33  3.2825343E-02
   7108.67  3.8379924E-02
   7109.00  4.5795799E-02
   7109.33  5.6576323E-02
   7109.67  7.2472621E-02
   7110.00  9.6925602E-02
   7110.33  1.4003492E-01
   7110.67  2.1393290E-01
   7111.00  3.2337014E-01
   7111.33  4.1268153E-01
   7111.67  4.5281326E-01
   7112.00  4.7349966E-01
   7112.33  4.6749682E-01
   7112.67  4.2645900E-01
   7113.00  3.5149341E-01
   7113.33  2.7304879E-01
   7113.67  2.1502391E-01
   7114.00  1.7610921E-01
   7114.33  1.5160099E-01
   7114.67  1.3620871E-01
   7115.00  1.2926374E-01
   7115.33  1.2959783E-01
   7115.67  1.2957019E-01
   7116.00  1.2681654E-01
   7116.33  1.2491732E-01
   7116.67  1.2679384E-01
   7117.00  1.3302936E-01
   7117.33  1.4344850E-01
   7117.67  1.5568531E-01
   7118.00  1.6701251E-01
   7118.33  1.7409639E-01
   7118.67  1.7748776E-01
   7119.00  1.7941536E-01
   7119.33  1.8257536E-01
   7119.67  1.8720933E-01
   7120.00  1.9275391E-01
   7120.33  1.9970031E-01
   7120.67  2.0748281E-01
   7121.00  2.1496865E-01
   7121.33  2.2386225E-01
   7121.67  2.3830314E-01
   7122.00  2.6142820E-01
   7122.33  2.9631111E-01
   7122.67  3.4078635E-01
   7123.00  3.9159411E-01
   7123.33  4.4191575E-01
   7123.67  4.8493155E-01
   7124.00  5.1830221E-01
   7124.33  5.4129247E-01
   7124.67  5.5736857E-01
   7125.00  5.6848428E-01
   7125.33  5.7407601E-01
   7125.67  5.7462090E-01
   7126.00  5.7312223E-01
   7126.33  5.7602838E-01
   7126.67  5.8671097E-01
   7127.00  6.0535889E-01
   7127.33  6.3049997E-01
   7127.67  6.5816220E-01
   7128.00  6.8561181E-01
   7128.33  7.0993703E-01
   7128.67  7.2961992E-01
   7129.00  7.4354681E-01
   7129.33  7.5011626E-01
   7129.67  7.5004806E-01
   7130.00  7.4382116E-01
   7130.33  7.3153870E-01
   7130.67  7.1455765E-01
   7131.00  6.9373161E-01
   7131.33  6.7074503E-01
   7131.67  6.4852984E-01
   7132.00  6.2908209E-01
   7132.33  6.1396144E-01
   7132.67  6.0267778E-01
   7133.00  5.9483168E-01
   7133.33  5.8995373E-01
   7133.67  5.8652704E-01
   7134.00  5.8357218E-01
   7134.33  5.8069053E-01
   7134.67  5.7824983E-01
   7135.00  5.7672864E-01
   7135.33  5.7669643E-01
   7135.67  5.7826375E-01
   7136.00  5.8166277E-01
   7136.33  5.8732263E-01
   7136.67  5.9472338E-01
   7137.00  6.0314524E-01
   7137.33  6.1132040E-01
   7137.67  6.1803685E-01
   7138.00  6.2263382E-01
   7138.33  6.2470892E-01
   7138.67  6.2493424E-01
   7139.00  6.2380958E-01
   7139.33  6.2174870E-01
   7139.67  6.1914063E-01
   7140.00  6.1598201E-01
   7140.33  6.1186434E-01
   7140.67  6.0631242E-01
   7141.00  5.9868107E-01
   7141.33  5.8787734E-01
   7141.67  5.7379911E-01
   7142.00  5.5649114E-01
   7142.33  5.3627799E-01
   7142.67  5.1461671E-01
   7143.00  4.9262054E-01
   7143.33  4.7154652E-01
   7143.67  4.5210765E-01
   7144.00  4.3469932E-01
   7144.33  4.1976519E-01
   7144.67  4.0699931E-01
   7145.00  3.9630362E-01
   7145.33  3.8778941E-01
   7145.67  3.8108924E-01
   7146.00  3.7609438E-01
   7146.33  3.7284748E-01
   7146.67  3.7096457E-01
   7147.00  3.7026060E-01
   7147.33  3.7063601E-01
   7147.67  3.7176573E-01
   7148.00  3.7349247E-01
   7148.33  3.7570763E-01
   7148.67  3.7821545E-01
   7149.00  3.8091439E-01
   7149.33  3.8373122E-01
   7149.67  3.8661426E-01
   7150.00  3.8957460E-01
   7150.33  3.9269057E-01
   7150.67  3.9604170E-01
   7151.00  3.9971870E-01
   7151.33  4.0385622E-01
   7151.67  4.0843479E-01
   7152.00  4.1343012E-01
   7152.33  4.1879309E-01
   7152.67  4.2433287E-01
   7153.00  4.2988560E-01
   7153.33  4.3521799E-01
   7153.67  4.4015232E-01
   7154.00  4.4453797E-01
   7154.33  4.4815299E-01
   7154.67  4.5099089E-01
   7155.00  4.5300374E-01
   7155.33  4.5405761E-01
   7155.67  4.5425428E-01
   7156.00  4.5360419E-01
   7156.33  4.5203623E-01
   7156.67  4.4970840E-01
   7157.00  4.4669238E-01
   7157.33  4.4302698E-01
   7157.67  4.3891817E-01
   7158.00  4.3449113E-01
   7158.33  4.2987199E-01
   7158.67  4.2522071E-01
   7159.00  4.2064193E-01
   7159.33  4.1625632E-01
   7159.67  4.1211580E-01
   7160.00  4.0826386E-01
   7160.33  4.0477104E-01
   7160.67  4.0160990E-01
   7161.00  3.9877953E-01
   7161.33  3.9630978E-01
   7161.67  3.9414220E-01
   7162.00  3.9225542E-01
   7162.33  3.9065350E-01
   7162.67  3.8927550E-01
   7163.00  3.8809502E-01
   7163.33  3.8710492E-01
   7163.67  3.8626395E-01
   7164.00  3.8556140E-01
   7164.33  3.8500736E-01
   7164.67  3.8458481E-01
   7165.00  3.8429712E-01
   7165.33  3.8416834E-01
   7165.67  3.8418842E-01
   7166.00  3.8436390E-01
   7166.33  3.8472161E-01
   7166.67  3.8524533E-01
   7167.00  3.8593571E-01
   7167.33  3.8681082E-01
   7167.67  3.8784428E-01
   7168.00  3.8902863E-01
   7168.33  3.9037058E-01
   7168.67  3.9184027E-01
   7169.00  3.9342645E-01
   7169.33  3.9512836E-01
   7169.67  3.9691787E-01
   7170.00  3.9877966E-01
   7170.33  4.0069805E-01
   7170.67  4.0263780E-01
   7171.00  4.0456551E-01
   7171.33  4.0641428E-01
   7171.67  4.0809304E-01
   7172.00  4.0947339E-01
