    FDMNES
    energy     <xanes>
   7097.00  4.6876331E-03
   7097.33  4.7878949E-03
   7097.67  4.8922821E-03
   7098.00  5.0010545E-03
   7098.33  5.1151352E-03
   7098.67  5.2343043E-03
   7099.00  5.3589120E-03
   7099.33  5.4901477E-03
   7099.67  5.6277825E-03
   7100.00  5.7723016E-03
   7100.33  5.9252787E-03
   7100.67  6.0864926E-03
   7101.00  6.2566383E-03
   7101.33  6.4378659E-03
   7101.67  6.6300005E-03
   7102.00  6.8340775E-03
   7102.33  7.0531534E-03
   7102.67  7.2871872E-03
   7103.00  7.5377990E-03
   7103.33  7.8095542E-03
   7103.67  8.1027504E-03
   7104.00  8.4200829E-03
   7104.33  8.7688153E-03
   7104.67  9.1500917E-03
   7105.00  9.5687622E-03
   7105.33  1.0037381E-02
   7105.67  1.0559314E-02
   7106.00  1.1144242E-02
   7106.33  1.1816449E-02
   7106.67  1.2585751E-02
   7107.00  1.3474465E-02
   7107.33  1.4537682E-02
   7107.67  1.5807403E-02
   7108.00  1.7347065E-02
   7108.33  1.9315597E-02
   7108.67  2.1844834E-02
   7109.00  2.5184777E-02
   7109.33  3.0009168E-02
   7109.67  3.7135570E-02
   7110.00  4.8187972E-02
   7110.33  6.7849054E-02
   7110.67  1.0019228E-01
   7111.00  1.4082423E-01
   7111.33  1.6297579E-01
   7111.67  1.6298391E-01
   7112.00  1.5314544E-01
   7112.33  1.4457442E-01
   7112.67  1.4187898E-01
   7113.00  1.4637127E-01
   7113.33  1.5890649E-01
   7113.67  1.7787064E-01
   7114.00  2.0139371E-01
   7114.33  2.1963276E-01
   7114.67  2.2010165E-01
   7115.00  2.0386750E-01
   7115.33  1.8339180E-01
   7115.67  1.6741131E-01
   7116.00  1.5728026E-01
   7116.33  1.5239147E-01
   7116.67  1.5022567E-01
   7117.00  1.4944102E-01
   7117.33  1.4908039E-01
   7117.67  1.4843865E-01
   7118.00  1.4746824E-01
   7118.33  1.4686129E-01
   7118.67  1.4735100E-01
   7119.00  1.4927421E-01
   7119.33  1.5286386E-01
   7119.67  1.5790286E-01
   7120.00  1.6449705E-01
   7120.33  1.7315679E-01
   7120.67  1.8386277E-01
   7121.00  1.9658008E-01
   7121.33  2.1125660E-01
   7121.67  2.2726657E-01
   7122.00  2.4419415E-01
   7122.33  2.6156879E-01
   7122.67  2.7895572E-01
   7123.00  2.9636618E-01
   7123.33  3.1440302E-01
   7123.67  3.3381153E-01
   7124.00  3.5517530E-01
   7124.33  3.7914473E-01
   7124.67  4.0553993E-01
   7125.00  4.3433547E-01
   7125.33  4.6564033E-01
   7125.67  4.9881902E-01
   7126.00  5.3335682E-01
   7126.33  5.6859378E-01
   7126.67  6.0372114E-01
   7127.00  6.3802393E-01
   7127.33  6.7019014E-01
   7127.67  6.9902615E-01
   7128.00  7.2307060E-01
   7128.33  7.3990748E-01
   7128.67  7.4939924E-01
   7129.00  7.5164282E-01
   7129.33  7.4703410E-01
   7129.67  7.3815790E-01
   7130.00  7.2662630E-01
   7130.33  7.1378127E-01
   7130.67  7.0066329E-01
   7131.00  6.8760043E-01
   7131.33  6.7463329E-01
   7131.67  6.6159909E-01
   7132.00  6.4835754E-01
   7132.33  6.3480055E-01
   7132.67  6.2102423E-01
   7133.00  6.0717437E-01
   7133.33  5.9349808E-01
   7133.67  5.8021017E-01
   7134.00  5.6748031E-01
   7134.33  5.5552657E-01
   7134.67  5.4431960E-01
   7135.00  5.3385950E-01
   7135.33  5.2420586E-01
   7135.67  5.1524992E-01
   7136.00  5.0702535E-01
   7136.33  4.9978807E-01
   7136.67  4.9372160E-01
   7137.00  4.8918855E-01
   7137.33  4.8692551E-01
   7137.67  4.8710425E-01
   7138.00  4.8992557E-01
   7138.33  4.9565732E-01
   7138.67  5.0359462E-01
   7139.00  5.1320756E-01
   7139.33  5.2388516E-01
   7139.67  5.3478920E-01
   7140.00  5.4538327E-01
   7140.33  5.5508049E-01
   7140.67  5.6365283E-01
   7141.00  5.7094454E-01
   7141.33  5.7674955E-01
   7141.67  5.8133313E-01
   7142.00  5.8487862E-01
   7142.33  5.8759262E-01
   7142.67  5.8991603E-01
   7143.00  5.9214443E-01
   7143.33  5.9460197E-01
   7143.67  5.9749786E-01
   7144.00  6.0095953E-01
   7144.33  6.0509283E-01
   7144.67  6.0970963E-01
   7145.00  6.1460774E-01
   7145.33  6.1945469E-01
   7145.67  6.2386160E-01
   7146.00  6.2746862E-01
   7146.33  6.2973125E-01
   7146.67  6.3048181E-01
   7147.00  6.2954501E-01
   7147.33  6.2663266E-01
   7147.67  6.2204248E-01
   7148.00  6.1594411E-01
   7148.33  6.0846797E-01
   7148.67  6.0010048E-01
   7149.00  5.9113453E-01
   7149.33  5.8185158E-01
   7149.67  5.7255387E-01
   7150.00  5.6342162E-01
   7150.33  5.5464558E-01
   7150.67  5.4628065E-01
   7151.00  5.3837106E-01
   7151.33  5.3099470E-01
   7151.67  5.2408777E-01
   7152.00  5.1763696E-01
   7152.33  5.1167715E-01
   7152.67  5.0613530E-01
   7153.00  5.0099955E-01
   7153.33  4.9630922E-01
   7153.67  4.9200519E-01
   7154.00  4.8808027E-01
   7154.33  4.8457537E-01
   7154.67  4.8143944E-01
   7155.00  4.7866803E-01
   7155.33  4.7629773E-01
   7155.67  4.7427248E-01
   7156.00  4.7257969E-01
   7156.33  4.7124096E-01
   7156.67  4.7019635E-01
   7157.00  4.6942349E-01
   7157.33  4.6890823E-01
   7157.67  4.6857009E-01
   7158.00  4.6837353E-01
   7158.33  4.6829235E-01
   7158.67  4.6827192E-01
   7159.00  4.6827556E-01
   7159.33  4.6826022E-01
   7159.67  4.6819158E-01
   7160.00  4.6804378E-01
   7160.33  4.6778143E-01
   7160.67  4.6740350E-01
   7161.00  4.6690557E-01
   7161.33  4.6627657E-01
   7161.67  4.6554359E-01
   7162.00  4.6472307E-01
   7162.33  4.6383153E-01
   7162.67  4.6290523E-01
   7163.00  4.6196916E-01
   7163.33  4.6105310E-01
   7163.67  4.6017918E-01
   7164.00  4.5936485E-01
   7164.33  4.5863563E-01
   7164.67  4.5799425E-01
   7165.00  4.5744794E-01
   7165.33  4.5701298E-01
   7165.67  4.5667768E-01
   7166.00  4.5644321E-01
   7166.33  4.5632050E-01
   7166.67  4.5629019E-01
   7167.00  4.5634566E-01
   7167.33  4.5649040E-01
   7167.67  4.5671003E-01
   7168.00  4.5700256E-01
   7168.33  4.5737640E-01
   7168.67  4.5782316E-01
   7169.00  4.5834482E-01
   7169.33  4.5895537E-01
   7169.67  4.5964995E-01
   7170.00  4.6043232E-01
   7170.33  4.6131500E-01
   7170.67  4.6228158E-01
   7171.00  4.6331832E-01
   7171.33  4.6439280E-01
   7171.67  4.6542308E-01
   7172.00  4.6629969E-01
