    FDMNES
    energy     <xanes>
   7097.00  4.8643302E-03
   7097.33  4.9751573E-03
   7097.67  5.0908838E-03
   7098.00  5.2118375E-03
   7098.33  5.3391466E-03
   7098.67  5.4725749E-03
   7099.00  5.6125695E-03
   7099.33  5.7606039E-03
   7099.67  5.9164375E-03
   7100.00  6.0806967E-03
   7100.33  6.2553592E-03
   7100.67  6.4402039E-03
   7101.00  6.6361383E-03
   7101.33  6.8459034E-03
   7101.67  7.0693522E-03
   7102.00  7.3078515E-03
   7102.33  7.5653537E-03
   7102.67  7.8419073E-03
   7103.00  8.1396718E-03
   7103.33  8.4646305E-03
   7103.67  8.8173092E-03
   7104.00  9.2013284E-03
   7104.33  9.6263207E-03
   7104.67  1.0093980E-02
   7105.00  1.0610853E-02
   7105.33  1.1193737E-02
   7105.67  1.1847344E-02
   7106.00  1.2584752E-02
   7106.33  1.3438576E-02
   7106.67  1.4422161E-02
   7107.00  1.5565482E-02
   7107.33  1.6942249E-02
   7107.67  1.8594931E-02
   7108.00  2.0607467E-02
   7108.33  2.3189209E-02
   7108.67  2.6510285E-02
   7109.00  3.0892389E-02
   7109.33  3.7195570E-02
   7109.67  4.6437541E-02
   7110.00  6.0629707E-02
   7110.33  8.5562188E-02
   7110.67  1.2661330E-01
   7111.00  1.8054377E-01
   7111.33  2.1956282E-01
   7111.67  2.3577114E-01
   7112.00  2.3832054E-01
   7112.33  2.3570158E-01
   7112.67  2.3303812E-01
   7113.00  2.3215563E-01
   7113.33  2.3420739E-01
   7113.67  2.3852485E-01
   7114.00  2.4376347E-01
   7114.33  2.4710794E-01
   7114.67  2.4625912E-01
   7115.00  2.4044049E-01
   7115.33  2.3027573E-01
   7115.67  2.1832884E-01
   7116.00  2.0609074E-01
   7116.33  1.9458510E-01
   7116.67  1.8401332E-01
   7117.00  1.7435784E-01
   7117.33  1.6565412E-01
   7117.67  1.5784060E-01
   7118.00  1.5110656E-01
   7118.33  1.4597711E-01
   7118.67  1.4260907E-01
   7119.00  1.4116692E-01
   7119.33  1.4188281E-01
   7119.67  1.4432900E-01
   7120.00  1.4827541E-01
   7120.33  1.5365319E-01
   7120.67  1.6022238E-01
   7121.00  1.6806843E-01
   7121.33  1.7764751E-01
   7121.67  1.8915060E-01
   7122.00  2.0294827E-01
   7122.33  2.1976661E-01
   7122.67  2.3947010E-01
   7123.00  2.6199977E-01
   7123.33  2.8719234E-01
   7123.67  3.1373119E-01
   7124.00  3.4034941E-01
   7124.33  3.6531892E-01
   7124.67  3.8775775E-01
   7125.00  4.0746476E-01
   7125.33  4.2471067E-01
   7125.67  4.4066231E-01
   7126.00  4.5602494E-01
   7126.33  4.7142102E-01
   7126.67  4.8726410E-01
   7127.00  5.0378645E-01
   7127.33  5.2123121E-01
   7127.67  5.3948055E-01
   7128.00  5.5838066E-01
   7128.33  5.7762996E-01
   7128.67  5.9671215E-01
   7129.00  6.1516301E-01
   7129.33  6.3232479E-01
   7129.67  6.4794838E-01
   7130.00  6.6185357E-01
   7130.33  6.7383523E-01
   7130.67  6.8434290E-01
   7131.00  6.9372679E-01
   7131.33  7.0243335E-01
   7131.67  7.1110873E-01
   7132.00  7.2021038E-01
   7132.33  7.3022655E-01
   7132.67  7.4113634E-01
   7133.00  7.5260813E-01
   7133.33  7.6349333E-01
   7133.67  7.7183791E-01
   7134.00  7.7520549E-01
   7134.33  7.6949448E-01
   7134.67  7.5352328E-01
   7135.00  7.2710888E-01
   7135.33  6.9132749E-01
   7135.67  6.5096856E-01
   7136.00  6.0941514E-01
   7136.33  5.7001666E-01
   7136.67  5.3443393E-01
   7137.00  5.0346552E-01
   7137.33  4.7800478E-01
   7137.67  4.5730336E-01
   7138.00  4.4105694E-01
   7138.33  4.2928444E-01
   7138.67  4.2093965E-01
   7139.00  4.1553345E-01
   7139.33  4.1281083E-01
   7139.67  4.1197331E-01
   7140.00  4.1265430E-01
   7140.33  4.1465779E-01
   7140.67  4.1758470E-01
   7141.00  4.2128444E-01
   7141.33  4.2572561E-01
   7141.67  4.3075802E-01
   7142.00  4.3634195E-01
   7142.33  4.4249283E-01
   7142.67  4.4907433E-01
   7143.00  4.5598538E-01
   7143.33  4.6306982E-01
   7143.67  4.7007118E-01
   7144.00  4.7675103E-01
   7144.33  4.8275303E-01
   7144.67  4.8791978E-01
   7145.00  4.9213259E-01
   7145.33  4.9526249E-01
   7145.67  4.9755563E-01
   7146.00  4.9920151E-01
   7146.33  5.0042485E-01
   7146.67  5.0155134E-01
   7147.00  5.0279507E-01
   7147.33  5.0439363E-01
   7147.67  5.0644054E-01
   7148.00  5.0899719E-01
   7148.33  5.1214661E-01
   7148.67  5.1579736E-01
   7149.00  5.1990599E-01
   7149.33  5.2445145E-01
   7149.67  5.2930102E-01
   7150.00  5.3437682E-01
   7150.33  5.3960522E-01
   7150.67  5.4488386E-01
   7151.00  5.5014621E-01
   7151.33  5.5531457E-01
   7151.67  5.6034403E-01
   7152.00  5.6519665E-01
   7152.33  5.6981313E-01
   7152.67  5.7419718E-01
   7153.00  5.7833646E-01
   7153.33  5.8219133E-01
   7153.67  5.8579033E-01
   7154.00  5.8913407E-01
   7154.33  5.9219528E-01
   7154.67  5.9501152E-01
   7155.00  5.9758869E-01
   7155.33  5.9990499E-01
   7155.67  6.0199617E-01
   7156.00  6.0386714E-01
   7156.33  6.0549606E-01
   7156.67  6.0691445E-01
   7157.00  6.0812494E-01
   7157.33  6.0909454E-01
   7157.67  6.0983731E-01
   7158.00  6.1034937E-01
   7158.33  6.1059912E-01
   7158.67  6.1061116E-01
   7159.00  6.1038125E-01
   7159.33  6.0987301E-01
   7159.67  6.0911053E-01
   7160.00  6.0808706E-01
   7160.33  6.0676076E-01
   7160.67  6.0515739E-01
   7161.00  6.0327067E-01
   7161.33  6.0105796E-01
   7161.67  5.9855129E-01
   7162.00  5.9574932E-01
   7162.33  5.9261435E-01
   7162.67  5.8918384E-01
   7163.00  5.8545975E-01
   7163.33  5.8141448E-01
   7163.67  5.7710473E-01
   7164.00  5.7254886E-01
   7164.33  5.6773204E-01
   7164.67  5.6269887E-01
   7165.00  5.5746757E-01
   7165.33  5.5204188E-01
   7165.67  5.4647045E-01
   7166.00  5.4077818E-01
   7166.33  5.3498464E-01
   7166.67  5.2913243E-01
   7167.00  5.2324776E-01
   7167.33  5.1736030E-01
   7167.67  5.1150075E-01
   7168.00  5.0569514E-01
   7168.33  4.9998240E-01
   7168.67  4.9437928E-01
   7169.00  4.8890861E-01
   7169.33  4.8361581E-01
   7169.67  4.7850600E-01
   7170.00  4.7360065E-01
   7170.33  4.6895507E-01
   7170.67  4.6457192E-01
   7171.00  4.6048747E-01
   7171.33  4.5681253E-01
   7171.67  4.5361546E-01
   7172.00  4.5103999E-01
