    FDMNES
    energy     <xanes>
   7097.00  4.8251048E-03
   7097.33  4.9283499E-03
   7097.67  5.0358831E-03
   7098.00  5.1479798E-03
   7098.33  5.2656085E-03
   7098.67  5.3885482E-03
   7099.00  5.5171727E-03
   7099.33  5.6527382E-03
   7099.67  5.7950185E-03
   7100.00  5.9445363E-03
   7100.33  6.1029673E-03
   7100.67  6.2701010E-03
   7101.00  6.4466939E-03
   7101.33  6.6350590E-03
   7101.67  6.8350482E-03
   7102.00  7.0478030E-03
   7102.33  7.2766513E-03
   7102.67  7.5216136E-03
   7103.00  7.7845008E-03
   7103.33  8.0703536E-03
   7103.67  8.3796074E-03
   7104.00  8.7153186E-03
   7104.33  9.0856309E-03
   7104.67  9.4920022E-03
   7105.00  9.9400057E-03
   7105.33  1.0443935E-02
   7105.67  1.1007898E-02
   7106.00  1.1643130E-02
   7106.33  1.2377620E-02
   7106.67  1.3223043E-02
   7107.00  1.4205348E-02
   7107.33  1.5388222E-02
   7107.67  1.6808671E-02
   7108.00  1.8539358E-02
   7108.33  2.0760883E-02
   7108.67  2.3618851E-02
   7109.00  2.7386900E-02
   7109.33  3.2790142E-02
   7109.67  4.0665348E-02
   7110.00  5.2651917E-02
   7110.33  7.3455943E-02
   7110.67  1.0787699E-01
   7111.00  1.5632846E-01
   7111.33  2.0731609E-01
   7111.67  2.5122289E-01
   7112.00  2.6955733E-01
   7112.33  2.3866300E-01
   7112.67  1.9408727E-01
   7113.00  1.5976005E-01
   7113.33  1.3931684E-01
   7113.67  1.2783512E-01
   7114.00  1.2129232E-01
   7114.33  1.1700771E-01
   7114.67  1.1525150E-01
   7115.00  1.0923240E-01
   7115.33  9.4308668E-02
   7115.67  7.9982746E-02
   7116.00  7.0018848E-02
   7116.33  6.4525881E-02
   7116.67  6.1868303E-02
   7117.00  6.1429887E-02
   7117.33  6.3136397E-02
   7117.67  6.6710967E-02
   7118.00  7.2186364E-02
   7118.33  7.9825300E-02
   7118.67  8.9674561E-02
   7119.00  1.0247519E-01
   7119.33  1.1961487E-01
   7119.67  1.4037794E-01
   7120.00  1.6324527E-01
   7120.33  1.8544895E-01
   7120.67  2.0487810E-01
   7121.00  2.2146480E-01
   7121.33  2.3689268E-01
   7121.67  2.5325554E-01
   7122.00  2.7153522E-01
   7122.33  2.9267807E-01
   7122.67  3.1711094E-01
   7123.00  3.4577467E-01
   7123.33  3.8043005E-01
   7123.67  4.2095641E-01
   7124.00  4.6693731E-01
   7124.33  5.1673766E-01
   7124.67  5.6623676E-01
   7125.00  6.1211075E-01
   7125.33  6.5244977E-01
   7125.67  6.9060392E-01
   7126.00  7.3134865E-01
   7126.33  7.8175097E-01
   7126.67  8.4206623E-01
   7127.00  9.0546491E-01
   7127.33  9.5534720E-01
   7127.67  9.8096093E-01
   7128.00  9.8028224E-01
   7128.33  9.5633892E-01
   7128.67  9.1986096E-01
   7129.00  8.7653587E-01
   7129.33  8.3034141E-01
   7129.67  7.8432241E-01
   7130.00  7.4021556E-01
   7130.33  6.9995811E-01
   7130.67  6.6408240E-01
   7131.00  6.3308035E-01
   7131.33  6.0805290E-01
   7131.67  5.8870059E-01
   7132.00  5.7512313E-01
   7132.33  5.6782446E-01
   7132.67  5.6585467E-01
   7133.00  5.6912886E-01
   7133.33  5.7816039E-01
   7133.67  5.9168763E-01
   7134.00  6.0853702E-01
   7134.33  6.2694631E-01
   7134.67  6.4471084E-01
   7135.00  6.6033182E-01
   7135.33  6.7204355E-01
   7135.67  6.7942360E-01
   7136.00  6.8213620E-01
   7136.33  6.7969417E-01
   7136.67  6.7320679E-01
   7137.00  6.6338884E-01
   7137.33  6.5093452E-01
   7137.67  6.3715612E-01
   7138.00  6.2286741E-01
   7138.33  6.0893893E-01
   7138.67  5.9598336E-01
   7139.00  5.8436935E-01
   7139.33  5.7446612E-01
   7139.67  5.6603226E-01
   7140.00  5.5890771E-01
   7140.33  5.5299306E-01
   7140.67  5.4792776E-01
   7141.00  5.4354273E-01
   7141.33  5.3973829E-01
   7141.67  5.3632131E-01
   7142.00  5.3320739E-01
   7142.33  5.3034250E-01
   7142.67  5.2760360E-01
   7143.00  5.2486095E-01
   7143.33  5.2183405E-01
   7143.67  5.1819767E-01
   7144.00  5.1360573E-01
   7144.33  5.0755282E-01
   7144.67  5.0003798E-01
   7145.00  4.9111563E-01
   7145.33  4.8091232E-01
   7145.67  4.6997388E-01
   7146.00  4.5867378E-01
   7146.33  4.4741064E-01
   7146.67  4.3648997E-01
   7147.00  4.2608943E-01
   7147.33  4.1640130E-01
   7147.67  4.0739644E-01
   7148.00  3.9908256E-01
   7148.33  3.9151276E-01
   7148.67  3.8453361E-01
   7149.00  3.7805518E-01
   7149.33  3.7199171E-01
   7149.67  3.6614844E-01
   7150.00  3.6039465E-01
   7150.33  3.5458266E-01
   7150.67  3.4861596E-01
   7151.00  3.4246033E-01
   7151.33  3.3614295E-01
   7151.67  3.2981716E-01
   7152.00  3.2364445E-01
   7152.33  3.1785638E-01
   7152.67  3.1255600E-01
   7153.00  3.0781864E-01
   7153.33  3.0375352E-01
   7153.67  3.0028158E-01
   7154.00  2.9738361E-01
   7154.33  2.9510027E-01
   7154.67  2.9333843E-01
   7155.00  2.9208143E-01
   7155.33  2.9137905E-01
   7155.67  2.9116483E-01
   7156.00  2.9143422E-01
   7156.33  2.9223555E-01
   7156.67  2.9349315E-01
   7157.00  2.9519119E-01
   7157.33  2.9736839E-01
   7157.67  2.9996707E-01
   7158.00  3.0299389E-01
   7158.33  3.0652498E-01
   7158.67  3.1053420E-01
   7159.00  3.1504989E-01
   7159.33  3.2016855E-01
   7159.67  3.2584206E-01
   7160.00  3.3207394E-01
   7160.33  3.3892064E-01
   7160.67  3.4628653E-01
   7161.00  3.5413791E-01
   7161.33  3.6247370E-01
   7161.67  3.7117451E-01
   7162.00  3.8019572E-01
   7162.33  3.8952817E-01
   7162.67  3.9908785E-01
   7163.00  4.0882690E-01
   7163.33  4.1869036E-01
   7163.67  4.2857469E-01
   7164.00  4.3838779E-01
   7164.33  4.4798219E-01
   7164.67  4.5724276E-01
   7165.00  4.6605530E-01
   7165.33  4.7424438E-01
   7165.67  4.8180469E-01
   7166.00  4.8870141E-01
   7166.33  4.9484702E-01
   7166.67  5.0035583E-01
   7167.00  5.0527682E-01
   7167.33  5.0961995E-01
   7167.67  5.1352968E-01
   7168.00  5.1707204E-01
   7168.33  5.2027689E-01
   7168.67  5.2323456E-01
   7169.00  5.2597755E-01
   7169.33  5.2850535E-01
   7169.67  5.3085120E-01
   7170.00  5.3301425E-01
   7170.33  5.3496302E-01
   7170.67  5.3670990E-01
   7171.00  5.3824482E-01
   7171.33  5.3953075E-01
   7171.67  5.4059070E-01
   7172.00  5.4142773E-01
