    FDMNES
    energy     <xanes>
   7097.00  5.3295883E-03
   7097.33  5.4658873E-03
   7097.67  5.6087690E-03
   7098.00  5.7587002E-03
   7098.33  5.9172411E-03
   7098.67  6.0841098E-03
   7099.00  6.2599498E-03
   7099.33  6.4468260E-03
   7099.67  6.6444593E-03
   7100.00  6.8537615E-03
   7100.33  7.0775413E-03
   7100.67  7.3155608E-03
   7101.00  7.5691547E-03
   7101.33  7.8422692E-03
   7101.67  8.1347933E-03
   7102.00  8.4487569E-03
   7102.33  8.7899254E-03
   7102.67  9.1585035E-03
   7103.00  9.5577266E-03
   7103.33  9.9964298E-03
   7103.67  1.0475567E-02
   7104.00  1.1000601E-02
   7104.33  1.1585903E-02
   7104.67  1.2234232E-02
   7105.00  1.2955503E-02
   7105.33  1.3774968E-02
   7105.67  1.4699971E-02
   7106.00  1.5750320E-02
   7106.33  1.6975164E-02
   7106.67  1.8394763E-02
   7107.00  2.0054201E-02
   7107.33  2.2063938E-02
   7107.67  2.4486877E-02
   7108.00  2.7447109E-02
   7108.33  3.1252647E-02
   7108.67  3.6147633E-02
   7109.00  4.2592390E-02
   7109.33  5.1806001E-02
   7109.67  6.5186656E-02
   7110.00  8.5482242E-02
   7110.33  1.2061688E-01
   7110.67  1.7881760E-01
   7111.00  2.6023279E-01
   7111.33  3.3169188E-01
   7111.67  3.7013557E-01
   7112.00  3.8851423E-01
   7112.33  4.0695749E-01
   7112.67  4.3068124E-01
   7113.00  4.5635530E-01
   7113.33  4.7404449E-01
   7113.67  4.6391828E-01
   7114.00  4.1125075E-01
   7114.33  3.3540015E-01
   7114.67  2.6895619E-01
   7115.00  2.1876373E-01
   7115.33  1.8403677E-01
   7115.67  1.5927788E-01
   7116.00  1.4182335E-01
   7116.33  1.3006448E-01
   7116.67  1.2216389E-01
   7117.00  1.1771215E-01
   7117.33  1.1676437E-01
   7117.67  1.1840798E-01
   7118.00  1.2198446E-01
   7118.33  1.2644954E-01
   7118.67  1.3011766E-01
   7119.00  1.3217263E-01
   7119.33  1.3370133E-01
   7119.67  1.3697279E-01
   7120.00  1.4318018E-01
   7120.33  1.5306450E-01
   7120.67  1.6619390E-01
   7121.00  1.8252547E-01
   7121.33  2.0176513E-01
   7121.67  2.2286587E-01
   7122.00  2.4618661E-01
   7122.33  2.7273293E-01
   7122.67  3.0144662E-01
   7123.00  3.3098020E-01
   7123.33  3.6125680E-01
   7123.67  3.9263517E-01
   7124.00  4.2304121E-01
   7124.33  4.4986507E-01
   7124.67  4.7472435E-01
   7125.00  4.9922389E-01
   7125.33  5.2477835E-01
   7125.67  5.5274078E-01
   7126.00  5.8396750E-01
   7126.33  6.1742442E-01
   7126.67  6.4841615E-01
   7127.00  6.7200743E-01
   7127.33  6.8327051E-01
   7127.67  6.8463336E-01
   7128.00  6.8008165E-01
   7128.33  6.7502226E-01
   7128.67  6.7294705E-01
   7129.00  6.7449733E-01
   7129.33  6.7966784E-01
   7129.67  6.8777530E-01
   7130.00  6.9856521E-01
   7130.33  7.1051318E-01
   7130.67  7.1971380E-01
   7131.00  7.2273200E-01
   7131.33  7.1739055E-01
   7131.67  7.0668488E-01
   7132.00  6.9322892E-01
   7132.33  6.7924703E-01
   7132.67  6.6613935E-01
   7133.00  6.5459374E-01
   7133.33  6.4556198E-01
   7133.67  6.3966440E-01
   7134.00  6.3737357E-01
   7134.33  6.3768619E-01
   7134.67  6.3696634E-01
   7135.00  6.3271116E-01
   7135.33  6.2432768E-01
   7135.67  6.1434772E-01
   7136.00  6.0460652E-01
   7136.33  5.9655659E-01
   7136.67  5.9047310E-01
   7137.00  5.8635272E-01
   7137.33  5.8407509E-01
   7137.67  5.8294105E-01
   7138.00  5.8256763E-01
   7138.33  5.8271165E-01
   7138.67  5.8307524E-01
   7139.00  5.8340390E-01
   7139.33  5.8333567E-01
   7139.67  5.8269772E-01
   7140.00  5.8142588E-01
   7140.33  5.7945814E-01
   7140.67  5.7689008E-01
   7141.00  5.7367485E-01
   7141.33  5.6953242E-01
   7141.67  5.6426635E-01
   7142.00  5.5759484E-01
   7142.33  5.4911006E-01
   7142.67  5.3907621E-01
   7143.00  5.2779131E-01
   7143.33  5.1570557E-01
   7143.67  5.0349285E-01
   7144.00  4.9158248E-01
   7144.33  4.8041307E-01
   7144.67  4.7010995E-01
   7145.00  4.6076115E-01
   7145.33  4.5252220E-01
   7145.67  4.4525027E-01
   7146.00  4.3890049E-01
   7146.33  4.3351590E-01
   7146.67  4.2894137E-01
   7147.00  4.2516603E-01
   7147.33  4.2231374E-01
   7147.67  4.2032382E-01
   7148.00  4.1923180E-01
   7148.33  4.1914625E-01
   7148.67  4.1987201E-01
   7149.00  4.2128351E-01
   7149.33  4.2325855E-01
   7149.67  4.2553497E-01
   7150.00  4.2795008E-01
   7150.33  4.3034069E-01
   7150.67  4.3259217E-01
   7151.00  4.3464169E-01
   7151.33  4.3642772E-01
   7151.67  4.3798294E-01
   7152.00  4.3933082E-01
   7152.33  4.4049392E-01
   7152.67  4.4154512E-01
   7153.00  4.4253053E-01
   7153.33  4.4349410E-01
   7153.67  4.4446424E-01
   7154.00  4.4543524E-01
   7154.33  4.4634838E-01
   7154.67  4.4710171E-01
   7155.00  4.4755977E-01
   7155.33  4.4747042E-01
   7155.67  4.4669687E-01
   7156.00  4.4509460E-01
   7156.33  4.4244391E-01
   7156.67  4.3884925E-01
   7157.00  4.3437235E-01
   7157.33  4.2905549E-01
   7157.67  4.2316540E-01
   7158.00  4.1685656E-01
   7158.33  4.1026111E-01
   7158.67  4.0354805E-01
   7159.00  3.9681412E-01
   7159.33  3.9016202E-01
   7159.67  3.8366428E-01
   7160.00  3.7738678E-01
   7160.33  3.7143761E-01
   7160.67  3.6584606E-01
   7161.00  3.6066232E-01
   7161.33  3.5599048E-01
   7161.67  3.5180720E-01
   7162.00  3.4812911E-01
   7162.33  3.4502514E-01
   7162.67  3.4242288E-01
   7163.00  3.4030917E-01
   7163.33  3.3872954E-01
   7163.67  3.3761150E-01
   7164.00  3.3694262E-01
   7164.33  3.3675937E-01
   7164.67  3.3698506E-01
   7165.00  3.3759584E-01
   7165.33  3.3860424E-01
   7165.67  3.3993110E-01
   7166.00  3.4154544E-01
   7166.33  3.4344421E-01
   7166.67  3.4556484E-01
   7167.00  3.4788470E-01
   7167.33  3.5040534E-01
   7167.67  3.5308950E-01
   7168.00  3.5592787E-01
   7168.33  3.5893020E-01
   7168.67  3.6206968E-01
   7169.00  3.6533691E-01
   7169.33  3.6873132E-01
   7169.67  3.7221827E-01
   7170.00  3.7577452E-01
   7170.33  3.7936964E-01
   7170.67  3.8295288E-01
   7171.00  3.8646916E-01
   7171.33  3.8979964E-01
   7171.67  3.9279743E-01
   7172.00  3.9525024E-01
