    FDMNES
    energy     <xanes>
   7097.00  5.1026843E-03
   7097.33  5.2234638E-03
   7097.67  5.3497319E-03
   7098.00  5.4818583E-03
   7098.33  5.6211097E-03
   7098.67  5.7672232E-03
   7099.00  5.9207002E-03
   7099.33  6.0831921E-03
   7099.67  6.2544267E-03
   7100.00  6.4351018E-03
   7100.33  6.6274242E-03
   7100.67  6.8311344E-03
   7101.00  7.0472329E-03
   7101.33  7.2787553E-03
   7101.67  7.5255056E-03
   7102.00  7.7889680E-03
   7102.33  8.0734679E-03
   7102.67  8.3789826E-03
   7103.00  8.7078101E-03
   7103.33  9.0663805E-03
   7103.67  9.4550957E-03
   7104.00  9.8777015E-03
   7104.33  1.0344280E-02
   7104.67  1.0856252E-02
   7105.00  1.1420136E-02
   7105.33  1.2052862E-02
   7105.67  1.2758385E-02
   7106.00  1.3549073E-02
   7106.33  1.4456081E-02
   7106.67  1.5490237E-02
   7107.00  1.6677972E-02
   7107.33  1.8084547E-02
   7107.67  1.9742356E-02
   7108.00  2.1718696E-02
   7108.33  2.4180204E-02
   7108.67  2.7245200E-02
   7109.00  3.1140966E-02
   7109.33  3.6460813E-02
   7109.67  4.3832583E-02
   7110.00  5.4484942E-02
   7110.33  7.1890288E-02
   7110.67  9.9416559E-02
   7111.00  1.3718852E-01
   7111.33  1.7749780E-01
   7111.67  2.1905700E-01
   7112.00  2.5931012E-01
   7112.33  2.9129410E-01
   7112.67  3.2146748E-01
   7113.00  3.5131574E-01
   7113.33  3.8058308E-01
   7113.67  4.1978284E-01
   7114.00  4.6661557E-01
   7114.33  4.8651693E-01
   7114.67  4.6067800E-01
   7115.00  4.0340845E-01
   7115.33  3.4358261E-01
   7115.67  2.9632262E-01
   7116.00  2.6308547E-01
   7116.33  2.4211440E-01
   7116.67  2.2723118E-01
   7117.00  2.1392940E-01
   7117.33  1.9827703E-01
   7117.67  1.8036266E-01
   7118.00  1.6283180E-01
   7118.33  1.4931669E-01
   7118.67  1.4039800E-01
   7119.00  1.3569729E-01
   7119.33  1.3448245E-01
   7119.67  1.3472619E-01
   7120.00  1.3518308E-01
   7120.33  1.3551813E-01
   7120.67  1.3631171E-01
   7121.00  1.3795748E-01
   7121.33  1.4040790E-01
   7121.67  1.4303916E-01
   7122.00  1.4542669E-01
   7122.33  1.4732730E-01
   7122.67  1.4946805E-01
   7123.00  1.5289204E-01
   7123.33  1.5860627E-01
   7123.67  1.6667257E-01
   7124.00  1.7727938E-01
   7124.33  1.9093120E-01
   7124.67  2.0722450E-01
   7125.00  2.2560810E-01
   7125.33  2.4469272E-01
   7125.67  2.6256947E-01
   7126.00  2.7824190E-01
   7126.33  2.9166739E-01
   7126.67  3.0458710E-01
   7127.00  3.1870427E-01
   7127.33  3.3619383E-01
   7127.67  3.5802712E-01
   7128.00  3.8480866E-01
   7128.33  4.1670489E-01
   7128.67  4.5117580E-01
   7129.00  4.8565578E-01
   7129.33  5.1751228E-01
   7129.67  5.4671165E-01
   7130.00  5.7409069E-01
   7130.33  6.0073309E-01
   7130.67  6.2780718E-01
   7131.00  6.5622332E-01
   7131.33  6.8724042E-01
   7131.67  7.2104799E-01
   7132.00  7.5723129E-01
   7132.33  7.9412067E-01
   7132.67  8.2906861E-01
   7133.00  8.6019384E-01
   7133.33  8.8589878E-01
   7133.67  9.0697345E-01
   7134.00  9.2402858E-01
   7134.33  9.3727945E-01
   7134.67  9.4729374E-01
   7135.00  9.5341502E-01
   7135.33  9.5243355E-01
   7135.67  9.4129983E-01
   7136.00  9.1785581E-01
   7136.33  8.8208784E-01
   7136.67  8.3969163E-01
   7137.00  7.9447913E-01
   7137.33  7.4961026E-01
   7137.67  7.0685218E-01
   7138.00  6.6716028E-01
   7138.33  6.3182574E-01
   7138.67  6.0093150E-01
   7139.00  5.7472008E-01
   7139.33  5.5370940E-01
   7139.67  5.3693411E-01
   7140.00  5.2388927E-01
   7140.33  5.1429106E-01
   7140.67  5.0711440E-01
   7141.00  5.0188500E-01
   7141.33  4.9836700E-01
   7141.67  4.9611007E-01
   7142.00  4.9501714E-01
   7142.33  4.9520373E-01
   7142.67  4.9649758E-01
   7143.00  4.9879631E-01
   7143.33  5.0194629E-01
   7143.67  5.0550756E-01
   7144.00  5.0918752E-01
   7144.33  5.1273746E-01
   7144.67  5.1609681E-01
   7145.00  5.1930551E-01
   7145.33  5.2245270E-01
   7145.67  5.2561932E-01
   7146.00  5.2881385E-01
   7146.33  5.3196600E-01
   7146.67  5.3494268E-01
   7147.00  5.3758782E-01
   7147.33  5.3964561E-01
   7147.67  5.4102073E-01
   7148.00  5.4162700E-01
   7148.33  5.4134759E-01
   7148.67  5.4034709E-01
   7149.00  5.3873031E-01
   7149.33  5.3659637E-01
   7149.67  5.3417333E-01
   7150.00  5.3160143E-01
   7150.33  5.2902032E-01
   7150.67  5.2654403E-01
   7151.00  5.2424944E-01
   7151.33  5.2223785E-01
   7151.67  5.2053173E-01
   7152.00  5.1916851E-01
   7152.33  5.1823258E-01
   7152.67  5.1770815E-01
   7153.00  5.1761895E-01
   7153.33  5.1804547E-01
   7153.67  5.1894649E-01
   7154.00  5.2032754E-01
   7154.33  5.2224157E-01
   7154.67  5.2460593E-01
   7155.00  5.2738571E-01
   7155.33  5.3056870E-01
   7155.67  5.3403757E-01
   7156.00  5.3772029E-01
   7156.33  5.4153935E-01
   7156.67  5.4538001E-01
   7157.00  5.4915622E-01
   7157.33  5.5275250E-01
   7157.67  5.5610026E-01
   7158.00  5.5912914E-01
   7158.33  5.6171431E-01
   7158.67  5.6383596E-01
   7159.00  5.6543972E-01
   7159.33  5.6639670E-01
   7159.67  5.6672989E-01
   7160.00  5.6640582E-01
   7160.33  5.6531289E-01
   7160.67  5.6352705E-01
   7161.00  5.6105550E-01
   7161.33  5.5784363E-01
   7161.67  5.5402262E-01
   7162.00  5.4965135E-01
   7162.33  5.4475766E-01
   7162.67  5.3950021E-01
   7163.00  5.3396843E-01
   7163.33  5.2823612E-01
   7163.67  5.2242337E-01
   7164.00  5.1661345E-01
   7164.33  5.1090162E-01
   7164.67  5.0534517E-01
   7165.00  4.9998975E-01
   7165.33  4.9490532E-01
   7165.67  4.9008940E-01
   7166.00  4.8555720E-01
   7166.33  4.8135548E-01
   7166.67  4.7745131E-01
   7167.00  4.7384310E-01
   7167.33  4.7056003E-01
   7167.67  4.6755416E-01
   7168.00  4.6481112E-01
   7168.33  4.6233900E-01
   7168.67  4.6008158E-01
   7169.00  4.5801444E-01
   7169.33  4.5612864E-01
   7169.67  4.5437680E-01
   7170.00  4.5273681E-01
   7170.33  4.5119695E-01
   7170.67  4.4973171E-01
   7171.00  4.4833883E-01
   7171.33  4.4704390E-01
   7171.67  4.4588034E-01
   7172.00  4.4491381E-01
