    FDMNES
    energy     <xanes>
   7097.00  4.4260629E-03
   7097.33  4.5152536E-03
   7097.67  4.6077657E-03
   7098.00  4.7037845E-03
   7098.33  4.8040131E-03
   7098.67  4.9082419E-03
   7099.00  5.0167127E-03
   7099.33  5.1303033E-03
   7099.67  5.2487866E-03
   7100.00  5.3724854E-03
   7100.33  5.5025195E-03
   7100.67  5.6386497E-03
   7101.00  5.7813189E-03
   7101.33  5.9319939E-03
   7101.67  6.0904376E-03
   7102.00  6.2572792E-03
   7102.33  6.4345032E-03
   7102.67  6.6219090E-03
   7103.00  6.8204297E-03
   7103.33  7.0328629E-03
   7103.67  7.2591264E-03
   7104.00  7.5006801E-03
   7104.33  7.7616853E-03
   7104.67  8.0423770E-03
   7105.00  8.3452052E-03
   7105.33  8.6768195E-03
   7105.67  9.0382934E-03
   7106.00  9.4341441E-03
   7106.33  9.8761067E-03
   7106.67  1.0367627E-02
   7107.00  1.0918207E-02
   7107.33  1.1551777E-02
   7107.67  1.2279527E-02
   7108.00  1.3125783E-02
   7108.33  1.4151586E-02
   7108.67  1.5400573E-02
   7109.00  1.6957964E-02
   7109.33  1.9049626E-02
   7109.67  2.1924607E-02
   7110.00  2.6076158E-02
   7110.33  3.2913702E-02
   7110.67  4.3762491E-02
   7111.00  5.8236912E-02
   7111.33  7.1479511E-02
   7111.67  7.9661185E-02
   7112.00  8.0238165E-02
   7112.33  8.0474395E-02
   7112.67  8.8378291E-02
   7113.00  1.0582661E-01
   7113.33  1.3537352E-01
   7113.67  1.7073234E-01
   7114.00  2.0525649E-01
   7114.33  2.0847414E-01
   7114.67  1.6932884E-01
   7115.00  1.2281570E-01
   7115.33  9.4358182E-02
   7115.67  7.8896489E-02
   7116.00  7.1753040E-02
   7116.33  7.0523569E-02
   7116.67  7.3348680E-02
   7117.00  8.0117731E-02
   7117.33  9.1986430E-02
   7117.67  1.0918359E-01
   7118.00  1.3128691E-01
   7118.33  1.5578035E-01
   7118.67  1.8348978E-01
   7119.00  2.2228902E-01
   7119.33  2.8157901E-01
   7119.67  3.5311902E-01
   7120.00  4.2198726E-01
   7120.33  4.7298341E-01
   7120.67  5.0643259E-01
   7121.00  5.2544828E-01
   7121.33  5.2768619E-01
   7121.67  5.1229027E-01
   7122.00  4.8272316E-01
   7122.33  4.4750224E-01
   7122.67  4.1427694E-01
   7123.00  3.8581044E-01
   7123.33  3.6381570E-01
   7123.67  3.4760713E-01
   7124.00  3.3735025E-01
   7124.33  3.3470169E-01
   7124.67  3.3947708E-01
   7125.00  3.5087205E-01
   7125.33  3.6603122E-01
   7125.67  3.8016395E-01
   7126.00  3.9065643E-01
   7126.33  3.9653366E-01
   7126.67  3.9993850E-01
   7127.00  4.0275504E-01
   7127.33  4.0676156E-01
   7127.67  4.1260591E-01
   7128.00  4.2052241E-01
   7128.33  4.3098032E-01
   7128.67  4.4395016E-01
   7129.00  4.5966619E-01
   7129.33  4.7868286E-01
   7129.67  5.0061697E-01
   7130.00  5.2522071E-01
   7130.33  5.5217437E-01
   7130.67  5.8045109E-01
   7131.00  6.0953477E-01
   7131.33  6.3942701E-01
   7131.67  6.7032955E-01
   7132.00  7.0232976E-01
   7132.33  7.3495856E-01
   7132.67  7.6684646E-01
   7133.00  7.9637047E-01
   7133.33  8.2061447E-01
   7133.67  8.3762507E-01
   7134.00  8.4549413E-01
   7134.33  8.4188024E-01
   7134.67  8.2884706E-01
   7135.00  8.0831995E-01
   7135.33  7.8236027E-01
   7135.67  7.5382029E-01
   7136.00  7.2415526E-01
   7136.33  6.9483258E-01
   7136.67  6.6717031E-01
   7137.00  6.4220688E-01
   7137.33  6.2121263E-01
   7137.67  6.0404305E-01
   7138.00  5.9057297E-01
   7138.33  5.8077748E-01
   7138.67  5.7367698E-01
   7139.00  5.6877687E-01
   7139.33  5.6576810E-01
   7139.67  5.6399471E-01
   7140.00  5.6312263E-01
   7140.33  5.6287542E-01
   7140.67  5.6288677E-01
   7141.00  5.6294728E-01
   7141.33  5.6285513E-01
   7141.67  5.6249471E-01
   7142.00  5.6177786E-01
   7142.33  5.6057905E-01
   7142.67  5.5889506E-01
   7143.00  5.5668350E-01
   7143.33  5.5384709E-01
   7143.67  5.5047019E-01
   7144.00  5.4660690E-01
   7144.33  5.4230810E-01
   7144.67  5.3773815E-01
   7145.00  5.3298502E-01
   7145.33  5.2809576E-01
   7145.67  5.2310392E-01
   7146.00  5.1800682E-01
   7146.33  5.1278403E-01
   7146.67  5.0745321E-01
   7147.00  5.0203211E-01
   7147.33  4.9655412E-01
   7147.67  4.9108417E-01
   7148.00  4.8568448E-01
   7148.33  4.8045503E-01
   7148.67  4.7546154E-01
   7149.00  4.7077501E-01
   7149.33  4.6651921E-01
   7149.67  4.6271039E-01
   7150.00  4.5939038E-01
   7150.33  4.5665327E-01
   7150.67  4.5443943E-01
   7151.00  4.5273116E-01
   7151.33  4.5153665E-01
   7151.67  4.5071973E-01
   7152.00  4.5019084E-01
   7152.33  4.4984514E-01
   7152.67  4.4952011E-01
   7153.00  4.4908877E-01
   7153.33  4.4838412E-01
   7153.67  4.4732811E-01
   7154.00  4.4585914E-01
   7154.33  4.4388994E-01
   7154.67  4.4148650E-01
   7155.00  4.3868751E-01
   7155.33  4.3552278E-01
   7155.67  4.3211920E-01
   7156.00  4.2855468E-01
   7156.33  4.2490636E-01
   7156.67  4.2125984E-01
   7157.00  4.1766955E-01
   7157.33  4.1419869E-01
   7157.67  4.1087009E-01
   7158.00  4.0770521E-01
   7158.33  4.0474384E-01
   7158.67  4.0197496E-01
   7159.00  3.9940633E-01
   7159.33  3.9707400E-01
   7159.67  3.9496383E-01
   7160.00  3.9308597E-01
   7160.33  3.9148293E-01
   7160.67  3.9014030E-01
   7161.00  3.8906983E-01
   7161.33  3.8830867E-01
   7161.67  3.8782314E-01
   7162.00  3.8761679E-01
   7162.33  3.8772401E-01
   7162.67  3.8810102E-01
   7163.00  3.8873397E-01
   7163.33  3.8963149E-01
   7163.67  3.9074128E-01
   7164.00  3.9204424E-01
   7164.33  3.9354278E-01
   7164.67  3.9520121E-01
   7165.00  3.9701319E-01
   7165.33  3.9899762E-01
   7165.67  4.0114146E-01
   7166.00  4.0345258E-01
   7166.33  4.0596146E-01
   7166.67  4.0865003E-01
   7167.00  4.1151555E-01
   7167.33  4.1456633E-01
   7167.67  4.1775854E-01
   7168.00  4.2106385E-01
   7168.33  4.2445066E-01
   7168.67  4.2786412E-01
   7169.00  4.3126380E-01
   7169.33  4.3459738E-01
   7169.67  4.3783180E-01
   7170.00  4.4093752E-01
   7170.33  4.4386708E-01
   7170.67  4.4661712E-01
   7171.00  4.4916789E-01
   7171.33  4.5145677E-01
   7171.67  4.5344765E-01
   7172.00  4.5505005E-01
