    FDMNES
    energy     <xanes>
   7097.00  5.2152186E-03
   7097.33  5.3393429E-03
   7097.67  5.4690857E-03
   7098.00  5.6048203E-03
   7098.33  5.7478343E-03
   7098.67  5.8978503E-03
   7099.00  6.0553715E-03
   7099.33  6.2220677E-03
   7099.67  6.3976471E-03
   7100.00  6.5828040E-03
   7100.33  6.7797542E-03
   7100.67  6.9882097E-03
   7101.00  7.2091556E-03
   7101.33  7.4456117E-03
   7101.67  7.6973357E-03
   7102.00  7.9657700E-03
   7102.33  8.2551640E-03
   7102.67  8.5654127E-03
   7103.00  8.8987094E-03
   7103.33  9.2612687E-03
   7103.67  9.6533251E-03
   7104.00  1.0078372E-02
   7104.33  1.0545937E-02
   7104.67  1.1057061E-02
   7105.00  1.1617637E-02
   7105.33  1.2243170E-02
   7105.67  1.2936648E-02
   7106.00  1.3708786E-02
   7106.33  1.4586869E-02
   7106.67  1.5578922E-02
   7107.00  1.6706500E-02
   7107.33  1.8023177E-02
   7107.67  1.9551708E-02
   7108.00  2.1342453E-02
   7108.33  2.3519751E-02
   7108.67  2.6159874E-02
   7109.00  2.9413717E-02
   7109.33  3.3668188E-02
   7109.67  3.9285992E-02
   7110.00  4.6976400E-02
   7110.33  5.8688872E-02
   7110.67  7.6072915E-02
   7111.00  9.8726472E-02
   7111.33  1.2336789E-01
   7111.67  1.5423853E-01
   7112.00  1.9513854E-01
   7112.33  2.5337422E-01
   7112.67  3.3554716E-01
   7113.00  4.4450384E-01
   7113.33  5.6671902E-01
   7113.67  6.6949822E-01
   7114.00  7.0497740E-01
   7114.33  6.2506768E-01
   7114.67  4.9824156E-01
   7115.00  3.8513887E-01
   7115.33  3.0891271E-01
   7115.67  2.5856506E-01
   7116.00  2.2699278E-01
   7116.33  2.1069787E-01
   7116.67  2.0421790E-01
   7117.00  2.0252957E-01
   7117.33  1.9795789E-01
   7117.67  1.8884792E-01
   7118.00  1.7760944E-01
   7118.33  1.6661526E-01
   7118.67  1.5721832E-01
   7119.00  1.4997489E-01
   7119.33  1.4483018E-01
   7119.67  1.4089005E-01
   7120.00  1.3771665E-01
   7120.33  1.3512969E-01
   7120.67  1.3306589E-01
   7121.00  1.3155819E-01
   7121.33  1.3055160E-01
   7121.67  1.3004991E-01
   7122.00  1.3050382E-01
   7122.33  1.3261038E-01
   7122.67  1.3627139E-01
   7123.00  1.4137066E-01
   7123.33  1.4801559E-01
   7123.67  1.5615666E-01
   7124.00  1.6604225E-01
   7124.33  1.7833324E-01
   7124.67  1.9319198E-01
   7125.00  2.1101931E-01
   7125.33  2.3282761E-01
   7125.67  2.5865259E-01
   7126.00  2.8833327E-01
   7126.33  3.2053436E-01
   7126.67  3.5172201E-01
   7127.00  3.7897371E-01
   7127.33  4.0028725E-01
   7127.67  4.1779430E-01
   7128.00  4.3410451E-01
   7128.33  4.5263121E-01
   7128.67  4.7514974E-01
   7129.00  5.0189978E-01
   7129.33  5.3216418E-01
   7129.67  5.6400944E-01
   7130.00  5.9668300E-01
   7130.33  6.3045434E-01
   7130.67  6.6593221E-01
   7131.00  7.0365327E-01
   7131.33  7.4413625E-01
   7131.67  7.8691378E-01
   7132.00  8.3166453E-01
   7132.33  8.7776457E-01
   7132.67  9.2310193E-01
   7133.00  9.6434511E-01
   7133.33  9.9453131E-01
   7133.67  1.0089573E+00
   7134.00  1.0045564E+00
   7134.33  9.7947825E-01
   7134.67  9.4013227E-01
   7135.00  8.9129123E-01
   7135.33  8.3754628E-01
   7135.67  7.8323596E-01
   7136.00  7.3049385E-01
   7136.33  6.8122155E-01
   7136.67  6.3590991E-01
   7137.00  5.9505102E-01
   7137.33  5.5968879E-01
   7137.67  5.2952775E-01
   7138.00  5.0468422E-01
   7138.33  4.8562332E-01
   7138.67  4.7111260E-01
   7139.00  4.6038789E-01
   7139.33  4.5287285E-01
   7139.67  4.4750153E-01
   7140.00  4.4393771E-01
   7140.33  4.4225775E-01
   7140.67  4.4226227E-01
   7141.00  4.4397913E-01
   7141.33  4.4761110E-01
   7141.67  4.5286413E-01
   7142.00  4.5960831E-01
   7142.33  4.6778825E-01
   7142.67  4.7697179E-01
   7143.00  4.8688972E-01
   7143.33  4.9725359E-01
   7143.67  5.0767173E-01
   7144.00  5.1786610E-01
   7144.33  5.2748869E-01
   7144.67  5.3637837E-01
   7145.00  5.4439890E-01
   7145.33  5.5134004E-01
   7145.67  5.5729592E-01
   7146.00  5.6228577E-01
   7146.33  5.6625654E-01
   7146.67  5.6941089E-01
   7147.00  5.7184040E-01
   7147.33  5.7358511E-01
   7147.67  5.7484070E-01
   7148.00  5.7570881E-01
   7148.33  5.7627060E-01
   7148.67  5.7667067E-01
   7149.00  5.7699956E-01
   7149.33  5.7736054E-01
   7149.67  5.7784275E-01
   7150.00  5.7852052E-01
   7150.33  5.7950383E-01
   7150.67  5.8081716E-01
   7151.00  5.8249524E-01
   7151.33  5.8460522E-01
   7151.67  5.8709077E-01
   7152.00  5.8992029E-01
   7152.33  5.9306303E-01
   7152.67  5.9638988E-01
   7153.00  5.9979949E-01
   7153.33  6.0315154E-01
   7153.67  6.0631471E-01
   7154.00  6.0917762E-01
   7154.33  6.1157710E-01
   7154.67  6.1347988E-01
   7155.00  6.1483779E-01
   7155.33  6.1555165E-01
   7155.67  6.1569319E-01
   7156.00  6.1528091E-01
   7156.33  6.1428780E-01
   7156.67  6.1282742E-01
   7157.00  6.1094670E-01
   7157.33  6.0865657E-01
   7157.67  6.0605822E-01
   7158.00  6.0319726E-01
   7158.33  6.0009626E-01
   7158.67  5.9682636E-01
   7159.00  5.9342236E-01
   7159.33  5.8990939E-01
   7159.67  5.8633400E-01
   7160.00  5.8272386E-01
   7160.33  5.7910806E-01
   7160.67  5.7551433E-01
   7161.00  5.7196178E-01
   7161.33  5.6847181E-01
   7161.67  5.6504913E-01
   7162.00  5.6170176E-01
   7162.33  5.5843788E-01
   7162.67  5.5523726E-01
   7163.00  5.5209019E-01
   7163.33  5.4898643E-01
   7163.67  5.4589979E-01
   7164.00  5.4280819E-01
   7164.33  5.3967783E-01
   7164.67  5.3648113E-01
   7165.00  5.3319105E-01
   7165.33  5.2976265E-01
   7165.67  5.2618679E-01
   7166.00  5.2244850E-01
   7166.33  5.1851555E-01
   7166.67  5.1440723E-01
   7167.00  5.1012881E-01
   7167.33  5.0567424E-01
   7167.67  5.0108328E-01
   7168.00  4.9637859E-01
   7168.33  4.9158346E-01
   7168.67  4.8674775E-01
   7169.00  4.8190405E-01
   7169.33  4.7708855E-01
   7169.67  4.7233039E-01
   7170.00  4.6765949E-01
   7170.33  4.6312931E-01
   7170.67  4.5876755E-01
   7171.00  4.5462214E-01
   7171.33  4.5081533E-01
   7171.67  4.4745536E-01
   7172.00  4.4472683E-01
