    FDMNES
    energy     <xanes>
   7097.00  4.0167132E-03
   7097.33  4.0980119E-03
   7097.67  4.1825682E-03
   7098.00  4.2705930E-03
   7098.33  4.3628257E-03
   7098.67  4.4591022E-03
   7099.00  4.5597120E-03
   7099.33  4.6656202E-03
   7099.67  4.7766634E-03
   7100.00  4.8932508E-03
   7100.33  5.0166820E-03
   7100.67  5.1468131E-03
   7101.00  5.2842451E-03
   7101.33  5.4307932E-03
   7101.67  5.5863758E-03
   7102.00  5.7519149E-03
   7102.33  5.9300614E-03
   7102.67  6.1208928E-03
   7103.00  6.3258986E-03
   7103.33  6.5491682E-03
   7103.67  6.7911631E-03
   7104.00  7.0544492E-03
   7104.33  7.3457780E-03
   7104.67  7.6665545E-03
   7105.00  8.0215669E-03
   7105.33  8.4229695E-03
   7105.67  8.8746315E-03
   7106.00  9.3864664E-03
   7106.33  9.9829889E-03
   7106.67  1.0675238E-02
   7107.00  1.1486836E-02
   7107.33  1.2475623E-02
   7107.67  1.3677332E-02
   7108.00  1.5160860E-02
   7108.33  1.7098201E-02
   7108.67  1.9635900E-02
   7109.00  2.3048957E-02
   7109.33  2.8076804E-02
   7109.67  3.5620075E-02
   7110.00  4.7459506E-02
   7110.33  6.8705550E-02
   7110.67  1.0370392E-01
   7111.00  1.4751636E-01
   7111.33  1.7450728E-01
   7111.67  1.8830218E-01
   7112.00  1.9886870E-01
   7112.33  1.9986803E-01
   7112.67  1.7962440E-01
   7113.00  1.4118308E-01
   7113.33  1.0632438E-01
   7113.67  8.2946797E-02
   7114.00  6.9356533E-02
   7114.33  6.1581585E-02
   7114.67  5.4176395E-02
   7115.00  4.6642539E-02
   7115.33  4.0618689E-02
   7115.67  3.6748716E-02
   7116.00  3.4661373E-02
   7116.33  3.3880526E-02
   7116.67  3.3861220E-02
   7117.00  3.4412485E-02
   7117.33  3.5486956E-02
   7117.67  3.7014158E-02
   7118.00  3.9031729E-02
   7118.33  4.1655018E-02
   7118.67  4.4806121E-02
   7119.00  4.8388887E-02
   7119.33  5.2199792E-02
   7119.67  5.5920800E-02
   7120.00  5.9357302E-02
   7120.33  6.2403604E-02
   7120.67  6.5196333E-02
   7121.00  6.7875005E-02
   7121.33  7.0612089E-02
   7121.67  7.3540231E-02
   7122.00  7.6779273E-02
   7122.33  8.0616005E-02
   7122.67  8.5350357E-02
   7123.00  9.1404158E-02
   7123.33  9.9604226E-02
   7123.67  1.1041921E-01
   7124.00  1.2456982E-01
   7124.33  1.4356469E-01
   7124.67  1.6790360E-01
   7125.00  1.9827314E-01
   7125.33  2.3510746E-01
   7125.67  2.7500895E-01
   7126.00  3.1354839E-01
   7126.33  3.4449410E-01
   7126.67  3.6655153E-01
   7127.00  3.8136964E-01
   7127.33  3.9203186E-01
   7127.67  4.0314220E-01
   7128.00  4.1956269E-01
   7128.33  4.4665226E-01
   7128.67  4.8340828E-01
   7129.00  5.2873760E-01
   7129.33  5.8359388E-01
   7129.67  6.4808835E-01
   7130.00  7.2292308E-01
   7130.33  8.0794130E-01
   7130.67  8.9757310E-01
   7131.00  9.8584103E-01
   7131.33  1.0637345E+00
   7131.67  1.1255972E+00
   7132.00  1.1675079E+00
   7132.33  1.1847674E+00
   7132.67  1.1808383E+00
   7133.00  1.1583643E+00
   7133.33  1.1210499E+00
   7133.67  1.0777738E+00
   7134.00  1.0347157E+00
   7134.33  9.9657770E-01
   7134.67  9.6219861E-01
   7135.00  9.2881410E-01
   7135.33  8.9370523E-01
   7135.67  8.5668858E-01
   7136.00  8.1870595E-01
   7136.33  7.8133851E-01
   7136.67  7.4581966E-01
   7137.00  7.1292022E-01
   7137.33  6.8355758E-01
   7137.67  6.5757394E-01
   7138.00  6.3502837E-01
   7138.33  6.1631719E-01
   7138.67  6.0091765E-01
   7139.00  5.8870902E-01
   7139.33  5.7988428E-01
   7139.67  5.7383456E-01
   7140.00  5.7031818E-01
   7140.33  5.6928790E-01
   7140.67  5.7011294E-01
   7141.00  5.7247617E-01
   7141.33  5.7615830E-01
   7141.67  5.8067316E-01
   7142.00  5.8576539E-01
   7142.33  5.9123084E-01
   7142.67  5.9683833E-01
   7143.00  6.0246355E-01
   7143.33  6.0798208E-01
   7143.67  6.1331063E-01
   7144.00  6.1837656E-01
   7144.33  6.2308621E-01
   7144.67  6.2745626E-01
   7145.00  6.3147609E-01
   7145.33  6.3511308E-01
   7145.67  6.3843966E-01
   7146.00  6.4148380E-01
   7146.33  6.4424488E-01
   7146.67  6.4676111E-01
   7147.00  6.4901128E-01
   7147.33  6.5091154E-01
   7147.67  6.5242595E-01
   7148.00  6.5345990E-01
   7148.33  6.5379961E-01
   7148.67  6.5337354E-01
   7149.00  6.5205842E-01
   7149.33  6.4960530E-01
   7149.67  6.4605486E-01
   7150.00  6.4136954E-01
   7150.33  6.3540543E-01
   7150.67  6.2834550E-01
   7151.00  6.2025707E-01
   7151.33  6.1112673E-01
   7151.67  6.0118070E-01
   7152.00  5.9051416E-01
   7152.33  5.7915453E-01
   7152.67  5.6727205E-01
   7153.00  5.5493821E-01
   7153.33  5.4217951E-01
   7153.67  5.2910631E-01
   7154.00  5.1576283E-01
   7154.33  5.0216242E-01
   7154.67  4.8837158E-01
   7155.00  4.7442676E-01
   7155.33  4.6036652E-01
   7155.67  4.4626250E-01
   7156.00  4.3217112E-01
   7156.33  4.1817629E-01
   7156.67  4.0434873E-01
   7157.00  3.9076359E-01
   7157.33  3.7755293E-01
   7157.67  3.6476668E-01
   7158.00  3.5248201E-01
   7158.33  3.4085545E-01
   7158.67  3.2988752E-01
   7159.00  3.1963290E-01
   7159.33  3.1023955E-01
   7159.67  3.0165214E-01
   7160.00  2.9389691E-01
   7160.33  2.8710180E-01
   7160.67  2.8117310E-01
   7161.00  2.7612011E-01
   7161.33  2.7207037E-01
   7161.67  2.6893454E-01
   7162.00  2.6673133E-01
   7162.33  2.6558833E-01
   7162.67  2.6538711E-01
   7163.00  2.6611275E-01
   7163.33  2.6783220E-01
   7163.67  2.7036527E-01
   7164.00  2.7362396E-01
   7164.33  2.7755099E-01
   7164.67  2.8192291E-01
   7165.00  2.8660873E-01
   7165.33  2.9148289E-01
   7165.67  2.9639636E-01
   7166.00  3.0126347E-01
   7166.33  3.0599608E-01
   7166.67  3.1056576E-01
   7167.00  3.1495649E-01
   7167.33  3.1914516E-01
   7167.67  3.2316678E-01
   7168.00  3.2703806E-01
   7168.33  3.3076556E-01
   7168.67  3.3438788E-01
   7169.00  3.3792230E-01
   7169.33  3.4137598E-01
   7169.67  3.4476858E-01
   7170.00  3.4810402E-01
   7170.33  3.5137150E-01
   7170.67  3.5456318E-01
   7171.00  3.5765063E-01
   7171.33  3.6054754E-01
   7171.67  3.6314664E-01
   7172.00  3.6527508E-01
