    FDMNES
    energy     <xanes>
   7097.00  4.0175114E-03
   7097.33  4.0988075E-03
   7097.67  4.1833595E-03
   7098.00  4.2713781E-03
   7098.33  4.3636021E-03
   7098.67  4.4598676E-03
   7099.00  4.5604636E-03
   7099.33  4.6663545E-03
   7099.67  4.7773767E-03
   7100.00  4.8939391E-03
   7100.33  5.0173402E-03
   7100.67  5.1474358E-03
   7101.00  5.2848263E-03
   7101.33  5.4313252E-03
   7101.67  5.5868507E-03
   7102.00  5.7523237E-03
   7102.33  5.9303923E-03
   7102.67  6.1211338E-03
   7103.00  6.3260358E-03
   7103.33  6.5491834E-03
   7103.67  6.7910374E-03
   7104.00  7.0541604E-03
   7104.33  7.3452972E-03
   7104.67  7.6658507E-03
   7105.00  8.0206043E-03
   7105.33  8.4216997E-03
   7105.67  8.8730023E-03
   7106.00  9.3844166E-03
   7106.33  9.9804345E-03
   7106.67  1.0672088E-02
   7107.00  1.1482980E-02
   7107.33  1.2470912E-02
   7107.67  1.3671602E-02
   7108.00  1.5153919E-02
   7108.33  1.7089796E-02
   7108.67  1.9625792E-02
   7109.00  2.3036942E-02
   7109.33  2.8062885E-02
   7109.67  3.5604955E-02
   7110.00  4.7445437E-02
   7110.33  6.8698910E-02
   7110.67  1.0370312E-01
   7111.00  1.4745430E-01
   7111.33  1.7420303E-01
   7111.67  1.8776155E-01
   7112.00  1.9828688E-01
   7112.33  1.9946265E-01
   7112.67  1.7937300E-01
   7113.00  1.4097329E-01
   7113.33  1.0616964E-01
   7113.67  8.2841205E-02
   7114.00  6.9261887E-02
   7114.33  6.1455554E-02
   7114.67  5.4080798E-02
   7115.00  4.6575385E-02
   7115.33  4.0548782E-02
   7115.67  3.6690909E-02
   7116.00  3.4617110E-02
   7116.33  3.3845174E-02
   7116.67  3.3829890E-02
   7117.00  3.4379565E-02
   7117.33  3.5446161E-02
   7117.67  3.6962044E-02
   7118.00  3.8968451E-02
   7118.33  4.1586878E-02
   7118.67  4.4744310E-02
   7119.00  4.8347505E-02
   7119.33  5.2190491E-02
   7119.67  5.5939907E-02
   7120.00  5.9387678E-02
   7120.33  6.2422137E-02
   7120.67  6.5191858E-02
   7121.00  6.7845183E-02
   7121.33  7.0559869E-02
   7121.67  7.3469469E-02
   7122.00  7.6694999E-02
   7122.33  8.0527374E-02
   7122.67  8.5268951E-02
   7123.00  9.1342690E-02
   7123.33  9.9575448E-02
   7123.67  1.1043106E-01
   7124.00  1.2462968E-01
   7124.33  1.4369155E-01
   7124.67  1.6813491E-01
   7125.00  1.9867184E-01
   7125.33  2.3577047E-01
   7125.67  2.7600004E-01
   7126.00  3.1485638E-01
   7126.33  3.4600390E-01
   7126.67  3.6812538E-01
   7127.00  3.8285476E-01
   7127.33  3.9326532E-01
   7127.67  4.0406917E-01
   7128.00  4.2021114E-01
   7128.33  4.4708140E-01
   7128.67  4.8367151E-01
   7129.00  5.2889155E-01
   7129.33  5.8369965E-01
   7129.67  6.4818595E-01
   7130.00  7.2302261E-01
   7130.33  8.0799468E-01
   7130.67  8.9750545E-01
   7131.00  9.8561552E-01
   7131.33  1.0634690E+00
   7131.67  1.1255705E+00
   7132.00  1.1680739E+00
   7132.33  1.1862388E+00
   7132.67  1.1832736E+00
   7133.00  1.1616097E+00
   7133.33  1.1247594E+00
   7133.67  1.0816298E+00
   7134.00  1.0384644E+00
   7134.33  1.0000339E+00
   7134.67  9.6526980E-01
   7135.00  9.3146450E-01
   7135.33  8.9596147E-01
   7135.67  8.5860815E-01
   7136.00  8.2035270E-01
   7136.33  7.8277602E-01
   7136.67  7.4709192E-01
   7137.00  7.1406072E-01
   7137.33  6.8459237E-01
   7137.67  6.5851864E-01
   7138.00  6.3589425E-01
   7138.33  6.1711318E-01
   7138.67  6.0164999E-01
   7139.00  5.8938354E-01
   7139.33  5.8050737E-01
   7139.67  5.7441088E-01
   7140.00  5.7085093E-01
   7140.33  5.6977920E-01
   7140.67  5.7056142E-01
   7141.00  5.7287513E-01
   7141.33  5.7649121E-01
   7141.67  5.8091774E-01
   7142.00  5.8589515E-01
   7142.33  5.9121566E-01
   7142.67  5.9665697E-01
   7143.00  6.0210356E-01
   7143.33  6.0744412E-01
   7143.67  6.1260865E-01
   7144.00  6.1753416E-01
   7144.33  6.2213826E-01
   7144.67  6.2643638E-01
   7145.00  6.3041637E-01
   7145.33  6.3404367E-01
   7145.67  6.3737914E-01
   7146.00  6.4044205E-01
   7146.33  6.4322072E-01
   7146.67  6.4574762E-01
   7147.00  6.4800699E-01
   7147.33  6.4992261E-01
   7147.67  6.5145740E-01
   7148.00  6.5251598E-01
   7148.33  6.5288610E-01
   7148.67  6.5249735E-01
   7149.00  6.5122789E-01
   7149.33  6.4883081E-01
   7149.67  6.4534530E-01
   7150.00  6.4073236E-01
   7150.33  6.3484595E-01
   7150.67  6.2786516E-01
   7151.00  6.1985421E-01
   7151.33  6.1079577E-01
   7151.67  6.0091436E-01
   7152.00  5.9030391E-01
   7152.33  5.7899002E-01
   7152.67  5.6714415E-01
   7153.00  5.5483785E-01
   7153.33  5.4209452E-01
   7153.67  5.2902578E-01
   7154.00  5.1567777E-01
   7154.33  5.0206278E-01
   7154.67  4.8824981E-01
   7155.00  4.7427920E-01
   7155.33  4.6019150E-01
   7155.67  4.4605861E-01
   7156.00  4.3193736E-01
   7156.33  4.1791274E-01
   7156.67  4.0405673E-01
   7157.00  3.9044553E-01
   7157.33  3.7721266E-01
   7157.67  3.6440826E-01
   7158.00  3.5210962E-01
   7158.33  3.4047341E-01
   7158.67  3.2949894E-01
   7159.00  3.1924015E-01
   7159.33  3.0984424E-01
   7159.67  3.0125494E-01
   7160.00  2.9349798E-01
   7160.33  2.8670154E-01
   7160.67  2.8077292E-01
   7161.00  2.7572137E-01
   7161.33  2.7167443E-01
   7161.67  2.6854310E-01
   7162.00  2.6634670E-01
   7162.33  2.6521376E-01
   7162.67  2.6502572E-01
   7163.00  2.6576790E-01
   7163.33  2.6750611E-01
   7163.67  2.7005614E-01
   7164.00  2.7332801E-01
   7164.33  2.7726340E-01
   7164.67  2.8163930E-01
   7165.00  2.8632470E-01
   7165.33  2.9119373E-01
   7165.67  2.9609852E-01
   7166.00  3.0095524E-01
   7166.33  3.0567864E-01
   7166.67  3.1023922E-01
   7167.00  3.1462068E-01
   7167.33  3.1880107E-01
   7167.67  3.2281628E-01
   7168.00  3.2668360E-01
   7168.33  3.3041046E-01
   7168.67  3.3403534E-01
   7169.00  3.3757551E-01
   7169.33  3.4103830E-01
   7169.67  3.4444262E-01
   7170.00  3.4779194E-01
   7170.33  3.5107502E-01
   7170.67  3.5428308E-01
   7171.00  3.5738701E-01
   7171.33  3.6029955E-01
   7171.67  3.6291253E-01
   7172.00  3.6505208E-01
