    FDMNES
    energy     <xanes>
   7097.00  4.9299821E-03
   7097.33  5.0426698E-03
   7097.67  5.1603724E-03
   7098.00  5.2834271E-03
   7098.33  5.4129913E-03
   7098.67  5.5488254E-03
   7099.00  5.6913890E-03
   7099.33  5.8421943E-03
   7099.67  6.0009965E-03
   7100.00  6.1684390E-03
   7100.33  6.3465504E-03
   7100.67  6.5351041E-03
   7101.00  6.7350295E-03
   7101.33  6.9491343E-03
   7101.67  7.1772625E-03
   7102.00  7.4208078E-03
   7102.33  7.6838051E-03
   7102.67  7.9662853E-03
   7103.00  8.2704347E-03
   7103.33  8.6023245E-03
   7103.67  8.9624385E-03
   7104.00  9.3544019E-03
   7104.33  9.7878912E-03
   7104.67  1.0264482E-02
   7105.00  1.0790623E-02
   7105.33  1.1382921E-02
   7105.67  1.2045709E-02
   7106.00  1.2791565E-02
   7106.33  1.3651945E-02
   7106.67  1.4638833E-02
   7107.00  1.5780055E-02
   7107.33  1.7144055E-02
   7107.67  1.8767528E-02
   7108.00  2.0724489E-02
   7108.33  2.3198432E-02
   7108.67  2.6328070E-02
   7109.00  3.0376766E-02
   7109.33  3.6037017E-02
   7109.67  4.4074927E-02
   7110.00  5.5991782E-02
   7110.33  7.6088855E-02
   7110.67  1.0886418E-01
   7111.00  1.5522214E-01
   7111.33  2.0184271E-01
   7111.67  2.3701420E-01
   7112.00  2.6038111E-01
   7112.33  2.7671361E-01
   7112.67  2.9234386E-01
   7113.00  3.1408047E-01
   7113.33  3.4306478E-01
   7113.67  3.6161146E-01
   7114.00  3.5996039E-01
   7114.33  3.2859753E-01
   7114.67  2.8088496E-01
   7115.00  2.3474443E-01
   7115.33  2.0197896E-01
   7115.67  1.8044021E-01
   7116.00  1.6624529E-01
   7116.33  1.5517079E-01
   7116.67  1.4420176E-01
   7117.00  1.3320542E-01
   7117.33  1.2379337E-01
   7117.67  1.1707860E-01
   7118.00  1.1357146E-01
   7118.33  1.1375255E-01
   7118.67  1.1699628E-01
   7119.00  1.2282758E-01
   7119.33  1.2962231E-01
   7119.67  1.3476349E-01
   7120.00  1.3801160E-01
   7120.33  1.4139201E-01
   7120.67  1.4596822E-01
   7121.00  1.5105530E-01
   7121.33  1.5542158E-01
   7121.67  1.5916655E-01
   7122.00  1.6276740E-01
   7122.33  1.6626732E-01
   7122.67  1.7035519E-01
   7123.00  1.7662679E-01
   7123.33  1.8740550E-01
   7123.67  2.0325510E-01
   7124.00  2.2440390E-01
   7124.33  2.5065513E-01
   7124.67  2.7908481E-01
   7125.00  3.0657812E-01
   7125.33  3.2993766E-01
   7125.67  3.4987920E-01
   7126.00  3.6819178E-01
   7126.33  3.8650672E-01
   7126.67  4.0483532E-01
   7127.00  4.2216851E-01
   7127.33  4.3745187E-01
   7127.67  4.5145277E-01
   7128.00  4.6494557E-01
   7128.33  4.7806619E-01
   7128.67  4.9160011E-01
   7129.00  5.0745709E-01
   7129.33  5.2830577E-01
   7129.67  5.5378679E-01
   7130.00  5.8240138E-01
   7130.33  6.1186683E-01
   7130.67  6.4021626E-01
   7131.00  6.6640644E-01
   7131.33  6.8960444E-01
   7131.67  7.1094039E-01
   7132.00  7.3243382E-01
   7132.33  7.5793140E-01
   7132.67  7.8973402E-01
   7133.00  8.2781842E-01
   7133.33  8.6902723E-01
   7133.67  9.0775240E-01
   7134.00  9.3990261E-01
   7134.33  9.6057787E-01
   7134.67  9.6897252E-01
   7135.00  9.6514138E-01
   7135.33  9.4997226E-01
   7135.67  9.2777656E-01
   7136.00  9.0097649E-01
   7136.33  8.7166957E-01
   7136.67  8.4207883E-01
   7137.00  8.1344885E-01
   7137.33  7.8685636E-01
   7137.67  7.6235144E-01
   7138.00  7.3988482E-01
   7138.33  7.1953581E-01
   7138.67  7.0097904E-01
   7139.00  6.8424084E-01
   7139.33  6.6967199E-01
   7139.67  6.5712531E-01
   7140.00  6.4657340E-01
   7140.33  6.3797627E-01
   7140.67  6.3061337E-01
   7141.00  6.2392399E-01
   7141.33  6.1722300E-01
   7141.67  6.0993960E-01
   7142.00  6.0177024E-01
   7142.33  5.9251097E-01
   7142.67  5.8246716E-01
   7143.00  5.7194526E-01
   7143.33  5.6136244E-01
   7143.67  5.5111690E-01
   7144.00  5.4145596E-01
   7144.33  5.3262187E-01
   7144.67  5.2453947E-01
   7145.00  5.1715244E-01
   7145.33  5.1044316E-01
   7145.67  5.0426578E-01
   7146.00  4.9860212E-01
   7146.33  4.9355014E-01
   7146.67  4.8910688E-01
   7147.00  4.8533112E-01
   7147.33  4.8235269E-01
   7147.67  4.8008002E-01
   7148.00  4.7847766E-01
   7148.33  4.7754570E-01
   7148.67  4.7710368E-01
   7149.00  4.7704029E-01
   7149.33  4.7724417E-01
   7149.67  4.7754557E-01
   7150.00  4.7783506E-01
   7150.33  4.7798845E-01
   7150.67  4.7793694E-01
   7151.00  4.7763231E-01
   7151.33  4.7701280E-01
   7151.67  4.7611771E-01
   7152.00  4.7497350E-01
   7152.33  4.7360736E-01
   7152.67  4.7211030E-01
   7153.00  4.7054465E-01
   7153.33  4.6898208E-01
   7153.67  4.6748453E-01
   7154.00  4.6609367E-01
   7154.33  4.6485883E-01
   7154.67  4.6377662E-01
   7155.00  4.6284648E-01
   7155.33  4.6207530E-01
   7155.67  4.6142954E-01
   7156.00  4.6089557E-01
   7156.33  4.6047410E-01
   7156.67  4.6014820E-01
   7157.00  4.5992016E-01
   7157.33  4.5981061E-01
   7157.67  4.5981712E-01
   7158.00  4.5994869E-01
   7158.33  4.6022777E-01
   7158.67  4.6063618E-01
   7159.00  4.6116441E-01
   7159.33  4.6180379E-01
   7159.67  4.6251078E-01
   7160.00  4.6325194E-01
   7160.33  4.6398337E-01
   7160.67  4.6466547E-01
   7161.00  4.6526850E-01
   7161.33  4.6575464E-01
   7161.67  4.6612738E-01
   7162.00  4.6639132E-01
   7162.33  4.6655260E-01
   7162.67  4.6664924E-01
   7163.00  4.6670121E-01
   7163.33  4.6672608E-01
   7163.67  4.6674584E-01
   7164.00  4.6676510E-01
   7164.33  4.6677043E-01
   7164.67  4.6673821E-01
   7165.00  4.6664109E-01
   7165.33  4.6643501E-01
   7165.67  4.6610746E-01
   7166.00  4.6564737E-01
   7166.33  4.6503857E-01
   7166.67  4.6431197E-01
   7167.00  4.6349026E-01
   7167.33  4.6260202E-01
   7167.67  4.6169681E-01
   7168.00  4.6081221E-01
   7168.33  4.5999878E-01
   7168.67  4.5928902E-01
   7169.00  4.5871754E-01
   7169.33  4.5834130E-01
   7169.67  4.5816022E-01
   7170.00  4.5818441E-01
   7170.33  4.5844278E-01
   7170.67  4.5890012E-01
   7171.00  4.5953514E-01
   7171.33  4.6031378E-01
   7171.67  4.6112517E-01
   7172.00  4.6184366E-01
