    FDMNES
    energy     <xanes>
   7097.00  4.3551717E-03
   7097.33  4.4501701E-03
   7097.67  4.5492400E-03
   7098.00  4.6526571E-03
   7098.33  4.7613662E-03
   7098.67  4.8751787E-03
   7099.00  4.9944765E-03
   7099.33  5.1205061E-03
   7099.67  5.2530846E-03
   7100.00  5.3927576E-03
   7100.33  5.5412237E-03
   7100.67  5.6983340E-03
   7101.00  5.8648990E-03
   7101.33  6.0433231E-03
   7101.67  6.2335558E-03
   7102.00  6.4368573E-03
   7102.33  6.6567932E-03
   7102.67  6.8935579E-03
   7103.00  7.1492205E-03
   7103.33  7.4293833E-03
   7103.67  7.7348304E-03
   7104.00  8.0691994E-03
   7104.33  8.4419499E-03
   7104.67  8.8553348E-03
   7105.00  9.3163206E-03
   7105.33  9.8424315E-03
   7105.67  1.0439852E-02
   7106.00  1.1123506E-02
   7106.33  1.1930103E-02
   7106.67  1.2877697E-02
   7107.00  1.4003525E-02
   7107.33  1.5398823E-02
   7107.67  1.7124701E-02
   7108.00  1.9296971E-02
   7108.33  2.2207541E-02
   7108.67  2.6125318E-02
   7109.00  3.1555941E-02
   7109.33  3.9889499E-02
   7109.67  5.2943630E-02
   7110.00  7.4353140E-02
   7110.33  1.1448185E-01
   7110.67  1.7941164E-01
   7111.00  2.4493074E-01
   7111.33  2.4132818E-01
   7111.67  2.0681091E-01
   7112.00  1.8076400E-01
   7112.33  1.7013294E-01
   7112.67  1.5512142E-01
   7113.00  1.3092293E-01
   7113.33  1.1082340E-01
   7113.67  9.8994308E-02
   7114.00  9.1319279E-02
   7114.33  8.2777811E-02
   7114.67  7.0294186E-02
   7115.00  5.8198579E-02
   7115.33  5.0994235E-02
   7115.67  4.7268861E-02
   7116.00  4.5857714E-02
   7116.33  4.6108430E-02
   7116.67  4.7279314E-02
   7117.00  4.8906970E-02
   7117.33  5.0493044E-02
   7117.67  5.1901180E-02
   7118.00  5.3394642E-02
   7118.33  5.5451109E-02
   7118.67  5.8263324E-02
   7119.00  6.1954617E-02
   7119.33  6.6784420E-02
   7119.67  7.2786558E-02
   7120.00  8.0134658E-02
   7120.33  8.9289261E-02
   7120.67  1.0037609E-01
   7121.00  1.1372687E-01
   7121.33  1.3013461E-01
   7121.67  1.4981630E-01
   7122.00  1.7336679E-01
   7122.33  2.0213809E-01
   7122.67  2.3607608E-01
   7123.00  2.7501194E-01
   7123.33  3.1802741E-01
   7123.67  3.6201366E-01
   7124.00  4.0431232E-01
   7124.33  4.4226901E-01
   7124.67  4.7563266E-01
   7125.00  5.0374925E-01
   7125.33  5.2296094E-01
   7125.67  5.3091987E-01
   7126.00  5.2779498E-01
   7126.33  5.1843457E-01
   7126.67  5.1107032E-01
   7127.00  5.1052210E-01
   7127.33  5.2057138E-01
   7127.67  5.3882984E-01
   7128.00  5.6163407E-01
   7128.33  5.8430671E-01
   7128.67  6.0422136E-01
   7129.00  6.2124950E-01
   7129.33  6.3678994E-01
   7129.67  6.5291470E-01
   7130.00  6.7060917E-01
   7130.33  6.9030710E-01
   7130.67  7.1133910E-01
   7131.00  7.3302777E-01
   7131.33  7.5428535E-01
   7131.67  7.7391660E-01
   7132.00  7.9086227E-01
   7132.33  8.0388272E-01
   7132.67  8.1345797E-01
   7133.00  8.2025645E-01
   7133.33  8.2497795E-01
   7133.67  8.2833171E-01
   7134.00  8.3043068E-01
   7134.33  8.3148267E-01
   7134.67  8.3189989E-01
   7135.00  8.3139319E-01
   7135.33  8.2880938E-01
   7135.67  8.2345390E-01
   7136.00  8.1498280E-01
   7136.33  8.0335733E-01
   7136.67  7.8982106E-01
   7137.00  7.7530756E-01
   7137.33  7.6075367E-01
   7137.67  7.4674340E-01
   7138.00  7.3344413E-01
   7138.33  7.2081319E-01
   7138.67  7.0847304E-01
   7139.00  6.9614819E-01
   7139.33  6.8360621E-01
   7139.67  6.7085216E-01
   7140.00  6.5802078E-01
   7140.33  6.4541357E-01
   7140.67  6.3332748E-01
   7141.00  6.2201268E-01
   7141.33  6.1179686E-01
   7141.67  6.0264783E-01
   7142.00  5.9457223E-01
   7142.33  5.8766844E-01
   7142.67  5.8175512E-01
   7143.00  5.7678416E-01
   7143.33  5.7281368E-01
   7143.67  5.6968752E-01
   7144.00  5.6737692E-01
   7144.33  5.6595882E-01
   7144.67  5.6530846E-01
   7145.00  5.6539409E-01
   7145.33  5.6624893E-01
   7145.67  5.6771023E-01
   7146.00  5.6968527E-01
   7146.33  5.7207810E-01
   7146.67  5.7466530E-01
   7147.00  5.7727492E-01
   7147.33  5.7967587E-01
   7147.67  5.8168932E-01
   7148.00  5.8314527E-01
   7148.33  5.8378082E-01
   7148.67  5.8357493E-01
   7149.00  5.8247022E-01
   7149.33  5.8031777E-01
   7149.67  5.7723329E-01
   7150.00  5.7323794E-01
   7150.33  5.6826833E-01
   7150.67  5.6249384E-01
   7151.00  5.5597509E-01
   7151.33  5.4870172E-01
   7151.67  5.4082831E-01
   7152.00  5.3240851E-01
   7152.33  5.2343080E-01
   7152.67  5.1400080E-01
   7153.00  5.0415603E-01
   7153.33  4.9387860E-01
   7153.67  4.8323207E-01
   7154.00  4.7222625E-01
   7154.33  4.6082864E-01
   7154.67  4.4909752E-01
   7155.00  4.3705179E-01
   7155.33  4.2469159E-01
   7155.67  4.1210764E-01
   7156.00  3.9936401E-01
   7156.33  3.8654377E-01
   7156.67  3.7376400E-01
   7157.00  3.6112834E-01
   7157.33  3.4879612E-01
   7157.67  3.3685829E-01
   7158.00  3.2541683E-01
   7158.33  3.1465446E-01
   7158.67  3.0458749E-01
   7159.00  2.9528099E-01
   7159.33  2.8689681E-01
   7159.67  2.7937720E-01
   7160.00  2.7275191E-01
   7160.33  2.6716340E-01
   7160.67  2.6251885E-01
   7161.00  2.5883456E-01
   7161.33  2.5624520E-01
   7161.67  2.5463411E-01
   7162.00  2.5399897E-01
   7162.33  2.5444424E-01
   7162.67  2.5581444E-01
   7163.00  2.5806643E-01
   7163.33  2.6123809E-01
   7163.67  2.6513870E-01
   7164.00  2.6966813E-01
   7164.33  2.7475169E-01
   7164.67  2.8018188E-01
   7165.00  2.8583902E-01
   7165.33  2.9160265E-01
   7165.67  2.9733851E-01
   7166.00  3.0295458E-01
   7166.33  3.0833895E-01
   7166.67  3.1345665E-01
   7167.00  3.1827614E-01
   7167.33  3.2274450E-01
   7167.67  3.2690771E-01
   7168.00  3.3078513E-01
   7168.33  3.3437964E-01
   7168.67  3.3776500E-01
   7169.00  3.4098017E-01
   7169.33  3.4405406E-01
   7169.67  3.4704232E-01
   7170.00  3.4997273E-01
   7170.33  3.5286265E-01
   7170.67  3.5572211E-01
   7171.00  3.5853575E-01
   7171.33  3.6123317E-01
   7171.67  3.6369685E-01
   7172.00  3.6574275E-01
