    FDMNES
    energy     <xanes>
   7097.00  4.3434802E-03
   7097.33  4.4315836E-03
   7097.67  4.5229532E-03
   7098.00  4.6177692E-03
   7098.33  4.7167194E-03
   7098.67  4.8195947E-03
   7099.00  4.9266292E-03
   7099.33  5.0386792E-03
   7099.67  5.1555177E-03
   7100.00  5.2774561E-03
   7100.33  5.4055834E-03
   7100.67  5.5396596E-03
   7101.00  5.6801112E-03
   7101.33  5.8283598E-03
   7101.67  5.9841664E-03
   7102.00  6.1481360E-03
   7102.33  6.3221871E-03
   7102.67  6.5061156E-03
   7103.00  6.7008187E-03
   7103.33  6.9089986E-03
   7103.67  7.1305681E-03
   7104.00  7.3669363E-03
   7104.33  7.6221304E-03
   7104.67  7.8963843E-03
   7105.00  8.1920854E-03
   7105.33  8.5157149E-03
   7105.67  8.8683770E-03
   7106.00  9.2545500E-03
   7106.33  9.6858557E-03
   7106.67  1.0165927E-02
   7107.00  1.0704453E-02
   7107.33  1.1325817E-02
   7107.67  1.2042172E-02
   7108.00  1.2879338E-02
   7108.33  1.3902235E-02
   7108.67  1.5159927E-02
   7109.00  1.6747270E-02
   7109.33  1.8917177E-02
   7109.67  2.1958640E-02
   7110.00  2.6444405E-02
   7110.33  3.4036086E-02
   7110.67  4.6470907E-02
   7111.00  6.3626227E-02
   7111.33  7.7178447E-02
   7111.67  8.3293474E-02
   7112.00  8.5309987E-02
   7112.33  8.4801195E-02
   7112.67  8.4155809E-02
   7113.00  8.4984704E-02
   7113.33  8.6128908E-02
   7113.67  8.5074133E-02
   7114.00  8.1887945E-02
   7114.33  7.8820310E-02
   7114.67  7.7681483E-02
   7115.00  7.9282612E-02
   7115.33  8.4716438E-02
   7115.67  9.4266808E-02
   7116.00  1.0854710E-01
   7116.33  1.2843093E-01
   7116.67  1.5216017E-01
   7117.00  1.7718560E-01
   7117.33  1.9958753E-01
   7117.67  2.1800473E-01
   7118.00  2.3328884E-01
   7118.33  2.4720069E-01
   7118.67  2.6189559E-01
   7119.00  2.7944740E-01
   7119.33  3.0301828E-01
   7119.67  3.3359639E-01
   7120.00  3.7142945E-01
   7120.33  4.1577264E-01
   7120.67  4.6245035E-01
   7121.00  5.0742438E-01
   7121.33  5.4528111E-01
   7121.67  5.7349555E-01
   7122.00  5.9008972E-01
   7122.33  5.8986202E-01
   7122.67  5.7115468E-01
   7123.00  5.3501493E-01
   7123.33  4.8879128E-01
   7123.67  4.4640854E-01
   7124.00  4.1772349E-01
   7124.33  4.0809969E-01
   7124.67  4.0601549E-01
   7125.00  4.0148111E-01
   7125.33  3.9233201E-01
   7125.67  3.8473385E-01
   7126.00  3.8239081E-01
   7126.33  3.8548825E-01
   7126.67  3.9164239E-01
   7127.00  4.0081302E-01
   7127.33  4.1386423E-01
   7127.67  4.3015331E-01
   7128.00  4.4908875E-01
   7128.33  4.6964033E-01
   7128.67  4.8963303E-01
   7129.00  5.0702003E-01
   7129.33  5.1908501E-01
   7129.67  5.2481671E-01
   7130.00  5.2336921E-01
   7130.33  5.1423558E-01
   7130.67  5.0059880E-01
   7131.00  4.8534888E-01
   7131.33  4.7137240E-01
   7131.67  4.5983397E-01
   7132.00  4.5114769E-01
   7132.33  4.4617962E-01
   7132.67  4.4498285E-01
   7133.00  4.4759457E-01
   7133.33  4.5380076E-01
   7133.67  4.6210847E-01
   7134.00  4.7145875E-01
   7134.33  4.8103172E-01
   7134.67  4.9082565E-01
   7135.00  5.0127426E-01
   7135.33  5.1289900E-01
   7135.67  5.2565173E-01
   7136.00  5.3937174E-01
   7136.33  5.5385365E-01
   7136.67  5.6884887E-01
   7137.00  5.8437214E-01
   7137.33  6.0059684E-01
   7137.67  6.1748757E-01
   7138.00  6.3495951E-01
   7138.33  6.5276308E-01
   7138.67  6.7037060E-01
   7139.00  6.8722688E-01
   7139.33  7.0239960E-01
   7139.67  7.1530447E-01
   7140.00  7.2532225E-01
   7140.33  7.3137710E-01
   7140.67  7.3342316E-01
   7141.00  7.3122755E-01
   7141.33  7.2425343E-01
   7141.67  7.1329051E-01
   7142.00  6.9872325E-01
   7142.33  6.8078197E-01
   7142.67  6.6063783E-01
   7143.00  6.3913929E-01
   7143.33  6.1733979E-01
   7143.67  5.9621318E-01
   7144.00  5.7625765E-01
   7144.33  5.5783586E-01
   7144.67  5.4067464E-01
   7145.00  5.2458300E-01
   7145.33  5.0945945E-01
   7145.67  4.9507171E-01
   7146.00  4.8138746E-01
   7146.33  4.6852089E-01
   7146.67  4.5644180E-01
   7147.00  4.4521592E-01
   7147.33  4.3504120E-01
   7147.67  4.2588363E-01
   7148.00  4.1782188E-01
   7148.33  4.1110086E-01
   7148.67  4.0566398E-01
   7149.00  4.0160017E-01
   7149.33  3.9921640E-01
   7149.67  3.9846206E-01
   7150.00  3.9945955E-01
   7150.33  4.0257224E-01
   7150.67  4.0764181E-01
   7151.00  4.1465770E-01
   7151.33  4.2370561E-01
   7151.67  4.3427582E-01
   7152.00  4.4605797E-01
   7152.33  4.5876953E-01
   7152.67  4.7188853E-01
   7153.00  4.8504284E-01
   7153.33  4.9777529E-01
   7153.67  5.0977816E-01
   7154.00  5.2080506E-01
   7154.33  5.3049251E-01
   7154.67  5.3884847E-01
   7155.00  5.4580426E-01
   7155.33  5.5115287E-01
   7155.67  5.5508966E-01
   7156.00  5.5765853E-01
   7156.33  5.5877715E-01
   7156.67  5.5870854E-01
   7157.00  5.5755474E-01
   7157.33  5.5532770E-01
   7157.67  5.5228548E-01
   7158.00  5.4854992E-01
   7158.33  5.4419182E-01
   7158.67  5.3941132E-01
   7159.00  5.3430875E-01
   7159.33  5.2895390E-01
   7159.67  5.2344686E-01
   7160.00  5.1782753E-01
   7160.33  5.1210764E-01
   7160.67  5.0629865E-01
   7161.00  5.0039467E-01
   7161.33  4.9436181E-01
   7161.67  4.8818471E-01
   7162.00  4.8184440E-01
   7162.33  4.7531348E-01
   7162.67  4.6862806E-01
   7163.00  4.6181947E-01
   7163.33  4.5493773E-01
   7163.67  4.4807412E-01
   7164.00  4.4132076E-01
   7164.33  4.3483590E-01
   7164.67  4.2873508E-01
   7165.00  4.2314996E-01
   7165.33  4.1831376E-01
   7165.67  4.1427439E-01
   7166.00  4.1111324E-01
   7166.33  4.0898036E-01
   7166.67  4.0771565E-01
   7167.00  4.0721150E-01
   7167.33  4.0735128E-01
   7167.67  4.0784657E-01
   7168.00  4.0852421E-01
   7168.33  4.0923265E-01
   7168.67  4.0987573E-01
   7169.00  4.1041874E-01
   7169.33  4.1084376E-01
   7169.67  4.1117855E-01
   7170.00  4.1144001E-01
   7170.33  4.1163904E-01
   7170.67  4.1179576E-01
   7171.00  4.1191743E-01
   7171.33  4.1200475E-01
   7171.67  4.1206347E-01
   7172.00  4.1209382E-01
