    FDMNES
    energy     <xanes>
   7097.00  4.0217778E-03
   7097.33  4.1004046E-03
   7097.67  4.1820604E-03
   7098.00  4.2669344E-03
   7098.33  4.3557021E-03
   7098.67  4.4482016E-03
   7099.00  4.5446901E-03
   7099.33  4.6460420E-03
   7099.67  4.7520927E-03
   7100.00  4.8632034E-03
   7100.33  4.9805399E-03
   7100.67  5.1039511E-03
   7101.00  5.2339626E-03
   7101.33  5.3721865E-03
   7101.67  5.5185200E-03
   7102.00  5.6737623E-03
   7102.33  5.8402426E-03
   7102.67  6.0179860E-03
   7103.00  6.2082719E-03
   7103.33  6.4146529E-03
   7103.67  6.6374663E-03
   7104.00  6.8788946E-03
   7104.33  7.1447322E-03
   7104.67  7.4360841E-03
   7105.00  7.7569786E-03
   7105.33  8.1177058E-03
   7105.67  8.5213633E-03
   7106.00  8.9761770E-03
   7106.33  9.5025647E-03
   7106.67  1.0109337E-02
   7107.00  1.0815726E-02
   7107.33  1.1668841E-02
   7107.67  1.2696667E-02
   7108.00  1.3953654E-02
   7108.33  1.5575032E-02
   7108.67  1.7671088E-02
   7109.00  2.0448262E-02
   7109.33  2.4453137E-02
   7109.67  3.0317674E-02
   7110.00  3.9278464E-02
   7110.33  5.4908670E-02
   7110.67  8.1144999E-02
   7111.00  1.1953084E-01
   7111.33  1.6079623E-01
   7111.67  1.8989279E-01
   7112.00  1.9767465E-01
   7112.33  1.7876546E-01
   7112.67  1.4346514E-01
   7113.00  1.0834254E-01
   7113.33  8.2989118E-02
   7113.67  6.6217767E-02
   7114.00  5.6230041E-02
   7114.33  5.1345093E-02
   7114.67  4.7777937E-02
   7115.00  4.3019934E-02
   7115.33  3.8517577E-02
   7115.67  3.5821070E-02
   7116.00  3.4681882E-02
   7116.33  3.4678541E-02
   7116.67  3.5342783E-02
   7117.00  3.6554885E-02
   7117.33  3.8361423E-02
   7117.67  4.0671296E-02
   7118.00  4.3408221E-02
   7118.33  4.6502261E-02
   7118.67  4.9810504E-02
   7119.00  5.3236206E-02
   7119.33  5.6644170E-02
   7119.67  5.9868581E-02
   7120.00  6.2773344E-02
   7120.33  6.5292098E-02
   7120.67  6.7640276E-02
   7121.00  7.0040718E-02
   7121.33  7.2739075E-02
   7121.67  7.5869077E-02
   7122.00  7.9655253E-02
   7122.33  8.4701962E-02
   7122.67  9.1513096E-02
   7123.00  1.0074703E-01
   7123.33  1.1376985E-01
   7123.67  1.3138919E-01
   7124.00  1.5488118E-01
   7124.33  1.8654297E-01
   7124.67  2.2576966E-01
   7125.00  2.7106801E-01
   7125.33  3.1935156E-01
   7125.67  3.6713174E-01
   7126.00  4.1270001E-01
   7126.33  4.5341178E-01
   7126.67  4.8583661E-01
   7127.00  5.0567478E-01
   7127.33  5.0969525E-01
   7127.67  5.0482908E-01
   7128.00  4.9830671E-01
   7128.33  4.9782625E-01
   7128.67  5.0656886E-01
   7129.00  5.2590351E-01
   7129.33  5.5836694E-01
   7129.67  6.0444157E-01
   7130.00  6.6637048E-01
   7130.33  7.4825243E-01
   7130.67  8.4693714E-01
   7131.00  9.5712774E-01
   7131.33  1.0643196E+00
   7131.67  1.1475055E+00
   7132.00  1.1898266E+00
   7132.33  1.1787650E+00
   7132.67  1.1298581E+00
   7133.00  1.0577649E+00
   7133.33  9.7729929E-01
   7133.67  8.9999658E-01
   7134.00  8.3069706E-01
   7134.33  7.7244355E-01
   7134.67  7.2380434E-01
   7135.00  6.8447094E-01
   7135.33  6.5529368E-01
   7135.67  6.3456625E-01
   7136.00  6.2151780E-01
   7136.33  6.1593716E-01
   7136.67  6.1594455E-01
   7137.00  6.2067198E-01
   7137.33  6.2959923E-01
   7137.67  6.4126941E-01
   7138.00  6.5481243E-01
   7138.33  6.6930338E-01
   7138.67  6.8364591E-01
   7139.00  6.9709751E-01
   7139.33  7.0882800E-01
   7139.67  7.1869460E-01
   7140.00  7.2664803E-01
   7140.33  7.3261747E-01
   7140.67  7.3709861E-01
   7141.00  7.4036065E-01
   7141.33  7.4258683E-01
   7141.67  7.4413718E-01
   7142.00  7.4515832E-01
   7142.33  7.4567497E-01
   7142.67  7.4573498E-01
   7143.00  7.4527998E-01
   7143.33  7.4410850E-01
   7143.67  7.4212778E-01
   7144.00  7.3916193E-01
   7144.33  7.3484103E-01
   7144.67  7.2910654E-01
   7145.00  7.2181170E-01
   7145.33  7.1264421E-01
   7145.67  7.0180254E-01
   7146.00  6.8936198E-01
   7146.33  6.7532380E-01
   7146.67  6.6012366E-01
   7147.00  6.4402482E-01
   7147.33  6.2728023E-01
   7147.67  6.1027794E-01
   7148.00  5.9326507E-01
   7148.33  5.7651566E-01
   7148.67  5.6019351E-01
   7149.00  5.4441866E-01
   7149.33  5.2935468E-01
   7149.67  5.1495800E-01
   7150.00  5.0122897E-01
   7150.33  4.8822148E-01
   7150.67  4.7579208E-01
   7151.00  4.6386492E-01
   7151.33  4.5242140E-01
   7151.67  4.4136447E-01
   7152.00  4.3067304E-01
   7152.33  4.2038518E-01
   7152.67  4.1046348E-01
   7153.00  4.0093248E-01
   7153.33  3.9189696E-01
   7153.67  3.8336793E-01
   7154.00  3.7540649E-01
   7154.33  3.6815319E-01
   7154.67  3.6156618E-01
   7155.00  3.5564638E-01
   7155.33  3.5042922E-01
   7155.67  3.4574846E-01
   7156.00  3.4149915E-01
   7156.33  3.3757183E-01
   7156.67  3.3377381E-01
   7157.00  3.2997044E-01
   7157.33  3.2599407E-01
   7157.67  3.2173363E-01
   7158.00  3.1709929E-01
   7158.33  3.1196529E-01
   7158.67  3.0636411E-01
   7159.00  3.0032062E-01
   7159.33  2.9387651E-01
   7159.67  2.8722689E-01
   7160.00  2.8055020E-01
   7160.33  2.7413211E-01
   7160.67  2.6823915E-01
   7161.00  2.6313500E-01
   7161.33  2.5924373E-01
   7161.67  2.5668031E-01
   7162.00  2.5560942E-01
   7162.33  2.5633756E-01
   7162.67  2.5866684E-01
   7163.00  2.6252077E-01
   7163.33  2.6791153E-01
   7163.67  2.7445233E-01
   7164.00  2.8192420E-01
   7164.33  2.9013287E-01
   7164.67  2.9871716E-01
   7165.00  3.0745037E-01
   7165.33  3.1609152E-01
   7165.67  3.2447006E-01
   7166.00  3.3247610E-01
   7166.33  3.3997886E-01
   7166.67  3.4700988E-01
   7167.00  3.5357912E-01
   7167.33  3.5966854E-01
   7167.67  3.6538082E-01
   7168.00  3.7076274E-01
   7168.33  3.7583463E-01
   7168.67  3.8068258E-01
   7169.00  3.8534621E-01
   7169.33  3.8984665E-01
   7169.67  3.9423353E-01
   7170.00  3.9852618E-01
   7170.33  4.0272475E-01
   7170.67  4.0683185E-01
   7171.00  4.1081830E-01
   7171.33  4.1458004E-01
   7171.67  4.1797631E-01
   7172.00  4.2077930E-01
