    FDMNES
    energy     <xanes>
   7097.00  4.7523144E-03
   7097.33  4.8591542E-03
   7097.67  4.9706786E-03
   7098.00  5.0872000E-03
   7098.33  5.2097945E-03
   7098.67  5.3382343E-03
   7099.00  5.4729440E-03
   7099.33  5.6153265E-03
   7099.67  5.7651481E-03
   7100.00  5.9230015E-03
   7100.33  6.0907639E-03
   7100.67  6.2682160E-03
   7101.00  6.4562114E-03
   7101.33  6.6573403E-03
   7101.67  6.8714439E-03
   7102.00  7.0997978E-03
   7102.33  7.3461092E-03
   7102.67  7.6103827E-03
   7103.00  7.8946093E-03
   7103.33  8.2043392E-03
   7103.67  8.5399724E-03
   7104.00  8.9047884E-03
   7104.33  9.3075741E-03
   7104.67  9.7496780E-03
   7105.00  1.0236882E-02
   7105.33  1.0784127E-02
   7105.67  1.1395135E-02
   7106.00  1.2081045E-02
   7106.33  1.2869790E-02
   7106.67  1.3771590E-02
   7107.00  1.4810674E-02
   7107.33  1.6046716E-02
   7107.67  1.7510558E-02
   7108.00  1.9265228E-02
   7108.33  2.1466824E-02
   7108.67  2.4229858E-02
   7109.00  2.7773063E-02
   7109.33  3.2670409E-02
   7109.67  3.9546740E-02
   7110.00  4.9627346E-02
   7110.33  6.6364955E-02
   7110.67  9.2738021E-02
   7111.00  1.2661208E-01
   7111.33  1.5545823E-01
   7111.67  1.8853693E-01
   7112.00  2.3817296E-01
   7112.33  2.9971014E-01
   7112.67  3.5561215E-01
   7113.00  3.8908423E-01
   7113.33  3.8230647E-01
   7113.67  3.5165078E-01
   7114.00  3.0462427E-01
   7114.33  2.4714962E-01
   7114.67  1.9738896E-01
   7115.00  1.6536821E-01
   7115.33  1.5516374E-01
   7115.67  1.5871065E-01
   7116.00  1.6646568E-01
   7116.33  1.6849259E-01
   7116.67  1.6588073E-01
   7117.00  1.5914928E-01
   7117.33  1.4779708E-01
   7117.67  1.3641887E-01
   7118.00  1.2790266E-01
   7118.33  1.2227960E-01
   7118.67  1.1728087E-01
   7119.00  1.1244928E-01
   7119.33  1.0921633E-01
   7119.67  1.0798086E-01
   7120.00  1.0754383E-01
   7120.33  1.0704792E-01
   7120.67  1.0754888E-01
   7121.00  1.0975966E-01
   7121.33  1.1358175E-01
   7121.67  1.1738295E-01
   7122.00  1.1971948E-01
   7122.33  1.2152006E-01
   7122.67  1.2552714E-01
   7123.00  1.3280852E-01
   7123.33  1.4397378E-01
   7123.67  1.5857930E-01
   7124.00  1.7654387E-01
   7124.33  1.9778898E-01
   7124.67  2.2091314E-01
   7125.00  2.4468879E-01
   7125.33  2.6781569E-01
   7125.67  2.8955052E-01
   7126.00  3.0915392E-01
   7126.33  3.2521795E-01
   7126.67  3.3770351E-01
   7127.00  3.4722536E-01
   7127.33  3.5516223E-01
   7127.67  3.6331705E-01
   7128.00  3.7274633E-01
   7128.33  3.8441287E-01
   7128.67  3.9832814E-01
   7129.00  4.1453135E-01
   7129.33  4.3331170E-01
   7129.67  4.5434198E-01
   7130.00  4.7746859E-01
   7130.33  5.0265618E-01
   7130.67  5.2970979E-01
   7131.00  5.5926278E-01
   7131.33  5.9328727E-01
   7131.67  6.3324522E-01
   7132.00  6.8098480E-01
   7132.33  7.3945836E-01
   7132.67  8.0751440E-01
   7133.00  8.8269748E-01
   7133.33  9.5853757E-01
   7133.67  1.0253256E+00
   7134.00  1.0753036E+00
   7134.33  1.1028938E+00
   7134.67  1.1153521E+00
   7135.00  1.1190963E+00
   7135.33  1.1176756E+00
   7135.67  1.1110982E+00
   7136.00  1.0977109E+00
   7136.33  1.0763494E+00
   7136.67  1.0497200E+00
   7137.00  1.0199973E+00
   7137.33  9.8903400E-01
   7137.67  9.5798467E-01
   7138.00  9.2719225E-01
   7138.33  8.9702573E-01
   7138.67  8.6791871E-01
   7139.00  8.4045583E-01
   7139.33  8.1556091E-01
   7139.67  7.9331346E-01
   7140.00  7.7371289E-01
   7140.33  7.5668502E-01
   7140.67  7.4128340E-01
   7141.00  7.2678727E-01
   7141.33  7.1227175E-01
   7141.67  6.9682537E-01
   7142.00  6.7977148E-01
   7142.33  6.6034239E-01
   7142.67  6.3877094E-01
   7143.00  6.1547035E-01
   7143.33  5.9123891E-01
   7143.67  5.6728263E-01
   7144.00  5.4448077E-01
   7144.33  5.2383840E-01
   7144.67  5.0554557E-01
   7145.00  4.8973074E-01
   7145.33  4.7664035E-01
   7145.67  4.6577559E-01
   7146.00  4.5691011E-01
   7146.33  4.4996972E-01
   7146.67  4.4445777E-01
   7147.00  4.4015756E-01
   7147.33  4.3698588E-01
   7147.67  4.3463018E-01
   7148.00  4.3293849E-01
   7148.33  4.3182857E-01
   7148.67  4.3112471E-01
   7149.00  4.3075768E-01
   7149.33  4.3070784E-01
   7149.67  4.3091253E-01
   7150.00  4.3136700E-01
   7150.33  4.3210647E-01
   7150.67  4.3310090E-01
   7151.00  4.3434557E-01
   7151.33  4.3585115E-01
   7151.67  4.3755159E-01
   7152.00  4.3939909E-01
   7152.33  4.4133048E-01
   7152.67  4.4325022E-01
   7153.00  4.4507835E-01
   7153.33  4.4669960E-01
   7153.67  4.4805448E-01
   7154.00  4.4908703E-01
   7154.33  4.4971125E-01
   7154.67  4.4996244E-01
   7155.00  4.4985615E-01
   7155.33  4.4939498E-01
   7155.67  4.4867848E-01
   7156.00  4.4776515E-01
   7156.33  4.4670580E-01
   7156.67  4.4557561E-01
   7157.00  4.4441652E-01
   7157.33  4.4326922E-01
   7157.67  4.4216429E-01
   7158.00  4.4112610E-01
   7158.33  4.4019412E-01
   7158.67  4.3938426E-01
   7159.00  4.3871968E-01
   7159.33  4.3824572E-01
   7159.67  4.3796042E-01
   7160.00  4.3787506E-01
   7160.33  4.3802160E-01
   7160.67  4.3837473E-01
   7161.00  4.3893141E-01
   7161.33  4.3970434E-01
   7161.67  4.4064983E-01
   7162.00  4.4174356E-01
   7162.33  4.4297072E-01
   7162.67  4.4428883E-01
   7163.00  4.4567224E-01
   7163.33  4.4709166E-01
   7163.67  4.4850810E-01
   7164.00  4.4989000E-01
   7164.33  4.5118908E-01
   7164.67  4.5237320E-01
   7165.00  4.5340653E-01
   7165.33  4.5422574E-01
   7165.67  4.5482025E-01
   7166.00  4.5516653E-01
   7166.33  4.5521314E-01
   7166.67  4.5498746E-01
   7167.00  4.5449467E-01
   7167.33  4.5372149E-01
   7167.67  4.5272923E-01
   7168.00  4.5155176E-01
   7168.33  4.5021671E-01
   7168.67  4.4878953E-01
   7169.00  4.4731111E-01
   7169.33  4.4582528E-01
   7169.67  4.4437199E-01
   7170.00  4.4297959E-01
   7170.33  4.4168631E-01
   7170.67  4.4050279E-01
   7171.00  4.3944396E-01
   7171.33  4.3854192E-01
   7171.67  4.3779469E-01
   7172.00  4.3721661E-01
