    FDMNES
    energy     <xanes>
   7097.00  4.8885241E-03
   7097.33  5.0078496E-03
   7097.67  5.1327317E-03
   7098.00  5.2635578E-03
   7098.33  5.4016329E-03
   7098.67  5.5467103E-03
   7099.00  5.6993225E-03
   7099.33  5.8611912E-03
   7099.67  6.0320707E-03
   7100.00  6.2127138E-03
   7100.33  6.4054555E-03
   7100.67  6.6100821E-03
   7101.00  6.8276937E-03
   7101.33  7.0615611E-03
   7101.67  7.3115722E-03
   7102.00  7.5793973E-03
   7102.33  7.8698002E-03
   7102.67  8.1829234E-03
   7103.00  8.5214225E-03
   7103.33  8.8925727E-03
   7103.67  9.2971192E-03
   7104.00  9.7395280E-03
   7104.33  1.0231581E-02
   7104.67  1.0775463E-02
   7105.00  1.1379229E-02
   7105.33  1.2063434E-02
   7105.67  1.2833867E-02
   7106.00  1.3706439E-02
   7106.33  1.4720658E-02
   7106.67  1.5892219E-02
   7107.00  1.7256564E-02
   7107.33  1.8900382E-02
   7107.67  2.0870682E-02
   7108.00  2.3261052E-02
   7108.33  2.6301781E-02
   7108.67  3.0163072E-02
   7109.00  3.5164484E-02
   7109.33  4.2130550E-02
   7109.67  5.1918414E-02
   7110.00  6.6176600E-02
   7110.33  8.9626136E-02
   7110.67  1.2851764E-01
   7111.00  1.9205119E-01
   7111.33  2.8555066E-01
   7111.67  3.7195284E-01
   7112.00  4.2418040E-01
   7112.33  4.4734541E-01
   7112.67  4.3489666E-01
   7113.00  3.7618757E-01
   7113.33  3.0218109E-01
   7113.67  2.5121360E-01
   7114.00  2.1942338E-01
   7114.33  1.9616326E-01
   7114.67  1.8002180E-01
   7115.00  1.6569392E-01
   7115.33  1.4763625E-01
   7115.67  1.2983482E-01
   7116.00  1.1102326E-01
   7116.33  9.2706138E-02
   7116.67  7.9670219E-02
   7117.00  7.2057273E-02
   7117.33  6.8761444E-02
   7117.67  6.8238697E-02
   7118.00  7.0073104E-02
   7118.33  7.4402670E-02
   7118.67  8.1057594E-02
   7119.00  9.0121481E-02
   7119.33  1.0133514E-01
   7119.67  1.1253020E-01
   7120.00  1.2136518E-01
   7120.33  1.2676080E-01
   7120.67  1.3159612E-01
   7121.00  1.3882916E-01
   7121.33  1.5156412E-01
   7121.67  1.7052832E-01
   7122.00  1.9629796E-01
   7122.33  2.2967263E-01
   7122.67  2.6814864E-01
   7123.00  3.0883247E-01
   7123.33  3.4964372E-01
   7123.67  3.9285482E-01
   7124.00  4.4158076E-01
   7124.33  4.9690091E-01
   7124.67  5.5427296E-01
   7125.00  6.0854954E-01
   7125.33  6.5211598E-01
   7125.67  6.8074280E-01
   7126.00  6.9248122E-01
   7126.33  6.8781513E-01
   7126.67  6.7376541E-01
   7127.00  6.5444013E-01
   7127.33  6.3217374E-01
   7127.67  6.0834418E-01
   7128.00  5.8378961E-01
   7128.33  5.5999224E-01
   7128.67  5.3798206E-01
   7129.00  5.1795625E-01
   7129.33  4.9980392E-01
   7129.67  4.8326467E-01
   7130.00  4.6887376E-01
   7130.33  4.5807211E-01
   7130.67  4.5146977E-01
   7131.00  4.4969057E-01
   7131.33  4.5378034E-01
   7131.67  4.6316586E-01
   7132.00  4.7774032E-01
   7132.33  4.9785876E-01
   7132.67  5.2244917E-01
   7133.00  5.5094330E-01
   7133.33  5.8303994E-01
   7133.67  6.1772376E-01
   7134.00  6.5425262E-01
   7134.33  6.9065443E-01
   7134.67  7.2334434E-01
   7135.00  7.4889905E-01
   7135.33  7.6441270E-01
   7135.67  7.7250274E-01
   7136.00  7.7583889E-01
   7136.33  7.7689469E-01
   7136.67  7.7729148E-01
   7137.00  7.7714160E-01
   7137.33  7.7569103E-01
   7137.67  7.7231214E-01
   7138.00  7.6666987E-01
   7138.33  7.5877463E-01
   7138.67  7.4967546E-01
   7139.00  7.4012994E-01
   7139.33  7.3070674E-01
   7139.67  7.2144849E-01
   7140.00  7.1211075E-01
   7140.33  7.0229095E-01
   7140.67  6.9185265E-01
   7141.00  6.8080370E-01
   7141.33  6.6926810E-01
   7141.67  6.5761589E-01
   7142.00  6.4616483E-01
   7142.33  6.3534724E-01
   7142.67  6.2541257E-01
   7143.00  6.1658575E-01
   7143.33  6.0923531E-01
   7143.67  6.0335423E-01
   7144.00  5.9897629E-01
   7144.33  5.9616176E-01
   7144.67  5.9451907E-01
   7145.00  5.9380619E-01
   7145.33  5.9377875E-01
   7145.67  5.9403027E-01
   7146.00  5.9429439E-01
   7146.33  5.9427388E-01
   7146.67  5.9380283E-01
   7147.00  5.9277374E-01
   7147.33  5.9105224E-01
   7147.67  5.8871784E-01
   7148.00  5.8580575E-01
   7148.33  5.8230891E-01
   7148.67  5.7835091E-01
   7149.00  5.7397680E-01
   7149.33  5.6918933E-01
   7149.67  5.6409679E-01
   7150.00  5.5878183E-01
   7150.33  5.5336473E-01
   7150.67  5.4800667E-01
   7151.00  5.4282248E-01
   7151.33  5.3793664E-01
   7151.67  5.3334351E-01
   7152.00  5.2900843E-01
   7152.33  5.2484634E-01
   7152.67  5.2067961E-01
   7153.00  5.1634678E-01
   7153.33  5.1161252E-01
   7153.67  5.0636002E-01
   7154.00  5.0049742E-01
   7154.33  4.9390732E-01
   7154.67  4.8671020E-01
   7155.00  4.7898658E-01
   7155.33  4.7080351E-01
   7155.67  4.6232829E-01
   7156.00  4.5364422E-01
   7156.33  4.4480485E-01
   7156.67  4.3587332E-01
   7157.00  4.2687576E-01
   7157.33  4.1782908E-01
   7157.67  4.0875832E-01
   7158.00  3.9968671E-01
   7158.33  3.9065807E-01
   7158.67  3.8171564E-01
   7159.00  3.7290565E-01
   7159.33  3.6431000E-01
   7159.67  3.5596636E-01
   7160.00  3.4792843E-01
   7160.33  3.4030143E-01
   7160.67  3.3309086E-01
   7161.00  3.2633175E-01
   7161.33  3.2011887E-01
   7161.67  3.1441634E-01
   7162.00  3.0923585E-01
   7162.33  3.0464622E-01
   7162.67  3.0057509E-01
   7163.00  2.9701037E-01
   7163.33  2.9399085E-01
   7163.67  2.9142325E-01
   7164.00  2.8927881E-01
   7164.33  2.8757861E-01
   7164.67  2.8624930E-01
   7165.00  2.8527396E-01
   7165.33  2.8467924E-01
   7165.67  2.8441247E-01
   7166.00  2.8446925E-01
   7166.33  2.8488922E-01
   7166.67  2.8563446E-01
   7167.00  2.8670817E-01
   7167.33  2.8815540E-01
   7167.67  2.8993608E-01
   7168.00  2.9204821E-01
   7168.33  2.9452529E-01
   7168.67  2.9731401E-01
   7169.00  3.0039883E-01
   7169.33  3.0379086E-01
   7169.67  3.0742715E-01
   7170.00  3.1127689E-01
   7170.33  3.1531545E-01
   7170.67  3.1945983E-01
   7171.00  3.2363417E-01
   7171.33  3.2768629E-01
   7171.67  3.3139077E-01
   7172.00  3.3444284E-01
