    FDMNES
    energy     <xanes>
   7097.00  4.9283352E-03
   7097.33  5.0462001E-03
   7097.67  5.1695029E-03
   7098.00  5.2986206E-03
   7098.33  5.4348271E-03
   7098.67  5.5778779E-03
   7099.00  5.7282905E-03
   7099.33  5.8877428E-03
   7099.67  6.0559900E-03
   7100.00  6.2337625E-03
   7100.33  6.4233314E-03
   7100.67  6.6244812E-03
   7101.00  6.8382769E-03
   7101.33  7.0678928E-03
   7101.67  7.3132087E-03
   7102.00  7.5758378E-03
   7102.33  7.8603926E-03
   7102.67  8.1669937E-03
   7103.00  8.4981999E-03
   7103.33  8.8610385E-03
   7103.67  9.2562031E-03
   7104.00  9.6879895E-03
   7104.33  1.0167753E-02
   7104.67  1.0697564E-02
   7105.00  1.1285167E-02
   7105.33  1.1950348E-02
   7105.67  1.2698657E-02
   7106.00  1.3545415E-02
   7106.33  1.4528721E-02
   7106.67  1.5663804E-02
   7107.00  1.6985051E-02
   7107.33  1.8576746E-02
   7107.67  2.0485446E-02
   7108.00  2.2803746E-02
   7108.33  2.5760736E-02
   7108.67  2.9531937E-02
   7109.00  3.4448335E-02
   7109.33  4.1377718E-02
   7109.67  5.1277524E-02
   7110.00  6.6016373E-02
   7110.33  9.0969275E-02
   7110.67  1.3220457E-01
   7111.00  1.9285647E-01
   7111.33  2.5714228E-01
   7111.67  3.0923649E-01
   7112.00  3.5686782E-01
   7112.33  3.8868334E-01
   7112.67  3.9146788E-01
   7113.00  3.6042341E-01
   7113.33  2.9744563E-01
   7113.67  2.4234677E-01
   7114.00  2.1355820E-01
   7114.33  2.1594027E-01
   7114.67  2.4240588E-01
   7115.00  2.8146816E-01
   7115.33  2.9447068E-01
   7115.67  2.6299344E-01
   7116.00  2.1062515E-01
   7116.33  1.6729880E-01
   7116.67  1.3766246E-01
   7117.00  1.1879981E-01
   7117.33  1.0804539E-01
   7117.67  1.0213599E-01
   7118.00  9.9670424E-02
   7118.33  9.9562646E-02
   7118.67  1.0023723E-01
   7119.00  1.0081294E-01
   7119.33  1.0134569E-01
   7119.67  1.0303618E-01
   7120.00  1.0694001E-01
   7120.33  1.1299407E-01
   7120.67  1.1831377E-01
   7121.00  1.2111667E-01
   7121.33  1.2214453E-01
   7121.67  1.2358640E-01
   7122.00  1.2649144E-01
   7122.33  1.3169501E-01
   7122.67  1.3931674E-01
   7123.00  1.4976749E-01
   7123.33  1.6420595E-01
   7123.67  1.8310618E-01
   7124.00  2.0708402E-01
   7124.33  2.3615540E-01
   7124.67  2.6690097E-01
   7125.00  2.9659972E-01
   7125.33  3.2529451E-01
   7125.67  3.5496217E-01
   7126.00  3.8511787E-01
   7126.33  4.1174436E-01
   7126.67  4.3100100E-01
   7127.00  4.4177134E-01
   7127.33  4.4637946E-01
   7127.67  4.5090052E-01
   7128.00  4.5959227E-01
   7128.33  4.7671334E-01
   7128.67  5.0271469E-01
   7129.00  5.3752920E-01
   7129.33  5.8106949E-01
   7129.67  6.3074862E-01
   7130.00  6.8512477E-01
   7130.33  7.4267852E-01
   7130.67  8.0014966E-01
   7131.00  8.5416853E-01
   7131.33  9.0000909E-01
   7131.67  9.3661171E-01
   7132.00  9.6509792E-01
   7132.33  9.8998596E-01
   7132.67  1.0181591E+00
   7133.00  1.0526032E+00
   7133.33  1.0879843E+00
   7133.67  1.1070547E+00
   7134.00  1.0938629E+00
   7134.33  1.0418964E+00
   7134.67  9.7185097E-01
   7135.00  8.9968941E-01
   7135.33  8.3691047E-01
   7135.67  7.8504389E-01
   7136.00  7.4311005E-01
   7136.33  7.0978364E-01
   7136.67  6.8178342E-01
   7137.00  6.5743864E-01
   7137.33  6.3553421E-01
   7137.67  6.1476767E-01
   7138.00  5.9455451E-01
   7138.33  5.7450437E-01
   7138.67  5.5443443E-01
   7139.00  5.3438853E-01
   7139.33  5.1467436E-01
   7139.67  4.9575141E-01
   7140.00  4.7818909E-01
   7140.33  4.6297960E-01
   7140.67  4.5050925E-01
   7141.00  4.4113896E-01
   7141.33  4.3537482E-01
   7141.67  4.3261973E-01
   7142.00  4.3256973E-01
   7142.33  4.3514521E-01
   7142.67  4.3974160E-01
   7143.00  4.4612778E-01
   7143.33  4.5417960E-01
   7143.67  4.6324936E-01
   7144.00  4.7275517E-01
   7144.33  4.8176845E-01
   7144.67  4.8942432E-01
   7145.00  4.9510366E-01
   7145.33  4.9820274E-01
   7145.67  4.9918081E-01
   7146.00  4.9849826E-01
   7146.33  4.9674391E-01
   7146.67  4.9473203E-01
   7147.00  4.9291040E-01
   7147.33  4.9165952E-01
   7147.67  4.9106372E-01
   7148.00  4.9114406E-01
   7148.33  4.9193612E-01
   7148.67  4.9328908E-01
   7149.00  4.9514101E-01
   7149.33  4.9749074E-01
   7149.67  5.0025201E-01
   7150.00  5.0342029E-01
   7150.33  5.0706553E-01
   7150.67  5.1116725E-01
   7151.00  5.1575749E-01
   7151.33  5.2093360E-01
   7151.67  5.2664772E-01
   7152.00  5.3289726E-01
   7152.33  5.3971944E-01
   7152.67  5.4699558E-01
   7153.00  5.5465245E-01
   7153.33  5.6261263E-01
   7153.67  5.7071153E-01
   7154.00  5.7882579E-01
   7154.33  5.8678783E-01
   7154.67  5.9446223E-01
   7155.00  6.0172114E-01
   7155.33  6.0835444E-01
   7155.67  6.1430374E-01
   7156.00  6.1947197E-01
   7156.33  6.2365472E-01
   7156.67  6.2688809E-01
   7157.00  6.2912731E-01
   7157.33  6.3021413E-01
   7157.67  6.3026906E-01
   7158.00  6.2930214E-01
   7158.33  6.2721786E-01
   7158.67  6.2418461E-01
   7159.00  6.2025026E-01
   7159.33  6.1537381E-01
   7159.67  6.0972832E-01
   7160.00  6.0337408E-01
   7160.33  5.9630461E-01
   7160.67  5.8867612E-01
   7161.00  5.8055183E-01
   7161.33  5.7194914E-01
   7161.67  5.6299125E-01
   7162.00  5.5373661E-01
   7162.33  5.4422074E-01
   7162.67  5.3453457E-01
   7163.00  5.2473406E-01
   7163.33  5.1488699E-01
   7163.67  5.0506240E-01
   7164.00  4.9530602E-01
   7164.33  4.8568269E-01
   7164.67  4.7622576E-01
   7165.00  4.6697597E-01
   7165.33  4.5801034E-01
   7165.67  4.4933965E-01
   7166.00  4.4099820E-01
   7166.33  4.3306813E-01
   7166.67  4.2553496E-01
   7167.00  4.1842140E-01
   7167.33  4.1180483E-01
   7167.67  4.0564785E-01
   7168.00  3.9996176E-01
   7168.33  3.9481351E-01
   7168.67  3.9014526E-01
   7169.00  3.8595558E-01
   7169.33  3.8229887E-01
   7169.67  3.7910790E-01
   7170.00  3.7636679E-01
   7170.33  3.7408912E-01
   7170.67  3.7218877E-01
   7171.00  3.7064269E-01
   7171.33  3.6945742E-01
   7171.67  3.6854468E-01
   7172.00  3.6784727E-01
