    FDMNES
    energy     <xanes>
   7097.00  3.8516024E-03
   7097.33  3.9215780E-03
   7097.67  3.9939865E-03
   7098.00  4.0689655E-03
   7098.33  4.1470342E-03
   7098.67  4.2280438E-03
   7099.00  4.3121777E-03
   7099.33  4.4000933E-03
   7099.67  4.4916353E-03
   7100.00  4.5870565E-03
   7100.33  4.6872130E-03
   7100.67  4.7919526E-03
   7101.00  4.9016363E-03
   7101.33  5.0174197E-03
   7101.67  5.1391747E-03
   7102.00  5.2674405E-03
   7102.33  5.4038465E-03
   7102.67  5.5483380E-03
   7103.00  5.7017639E-03
   7103.33  5.8665514E-03
   7103.67  6.0428344E-03
   7104.00  6.2320402E-03
   7104.33  6.4380424E-03
   7104.67  6.6614507E-03
   7105.00  6.9048690E-03
   7105.33  7.1750508E-03
   7105.67  7.4738586E-03
   7106.00  7.8065702E-03
   7106.33  8.1864087E-03
   7106.67  8.6188716E-03
   7107.00  9.1162741E-03
   7107.33  9.7089513E-03
   7107.67  1.0414772E-02
   7108.00  1.1268834E-02
   7108.33  1.2358711E-02
   7108.67  1.3756574E-02
   7109.00  1.5598261E-02
   7109.33  1.8246364E-02
   7109.67  2.2129936E-02
   7110.00  2.8093939E-02
   7110.33  3.8574594E-02
   7110.67  5.5968363E-02
   7111.00  7.9656431E-02
   7111.33  9.9618228E-02
   7111.67  1.1230675E-01
   7112.00  1.1995743E-01
   7112.33  1.1050040E-01
   7112.67  8.8870654E-02
   7113.00  6.9756822E-02
   7113.33  5.9107971E-02
   7113.67  5.5246038E-02
   7114.00  5.6675942E-02
   7114.33  5.7600404E-02
   7114.67  5.1632753E-02
   7115.00  4.2480366E-02
   7115.33  3.6194179E-02
   7115.67  3.2692973E-02
   7116.00  3.1004811E-02
   7116.33  3.0466037E-02
   7116.67  3.0559695E-02
   7117.00  3.1187142E-02
   7117.33  3.2457875E-02
   7117.67  3.4390589E-02
   7118.00  3.7053088E-02
   7118.33  4.0551652E-02
   7118.67  4.4688439E-02
   7119.00  4.9274193E-02
   7119.33  5.3901351E-02
   7119.67  5.7931812E-02
   7120.00  6.0911003E-02
   7120.33  6.2685455E-02
   7120.67  6.3907674E-02
   7121.00  6.5182437E-02
   7121.33  6.7201979E-02
   7121.67  7.0312225E-02
   7122.00  7.4788015E-02
   7122.33  8.1172012E-02
   7122.67  8.9694175E-02
   7123.00  1.0086349E-01
   7123.33  1.1586651E-01
   7123.67  1.3505875E-01
   7124.00  1.5873969E-01
   7124.33  1.8670174E-01
   7124.67  2.1585406E-01
   7125.00  2.4194826E-01
   7125.33  2.6122637E-01
   7125.67  2.7842739E-01
   7126.00  2.9795586E-01
   7126.33  3.2122481E-01
   7126.67  3.4635000E-01
   7127.00  3.7203427E-01
   7127.33  3.9838724E-01
   7127.67  4.2786178E-01
   7128.00  4.6391396E-01
   7128.33  5.1063667E-01
   7128.67  5.6628254E-01
   7129.00  6.2706671E-01
   7129.33  6.8658478E-01
   7129.67  7.4146063E-01
   7130.00  7.9314436E-01
   7130.33  8.4601425E-01
   7130.67  9.0257389E-01
   7131.00  9.6238084E-01
   7131.33  1.0218893E+00
   7131.67  1.0744671E+00
   7132.00  1.1129833E+00
   7132.33  1.1290212E+00
   7132.67  1.1249110E+00
   7133.00  1.1044369E+00
   7133.33  1.0724942E+00
   7133.67  1.0366796E+00
   7134.00  1.0019465E+00
   7134.33  9.7246227E-01
   7134.67  9.4656406E-01
   7135.00  9.2021044E-01
   7135.33  8.8891382E-01
   7135.67  8.5290835E-01
   7136.00  8.1409591E-01
   7136.33  7.7517617E-01
   7136.67  7.3824681E-01
   7137.00  7.0438094E-01
   7137.33  6.7460905E-01
   7137.67  6.4857856E-01
   7138.00  6.2617133E-01
   7138.33  6.0757566E-01
   7138.67  5.9212098E-01
   7139.00  5.7962466E-01
   7139.33  5.7026359E-01
   7139.67  5.6354420E-01
   7140.00  5.5933645E-01
   7140.33  5.5773952E-01
   7140.67  5.5821647E-01
   7141.00  5.6051173E-01
   7141.33  5.6446400E-01
   7141.67  5.6950141E-01
   7142.00  5.7526866E-01
   7142.33  5.8138167E-01
   7142.67  5.8739410E-01
   7143.00  5.9298877E-01
   7143.33  5.9776769E-01
   7143.67  6.0159678E-01
   7144.00  6.0435163E-01
   7144.33  6.0581443E-01
   7144.67  6.0611398E-01
   7145.00  6.0527179E-01
   7145.33  6.0320451E-01
   7145.67  6.0012347E-01
   7146.00  5.9611142E-01
   7146.33  5.9119094E-01
   7146.67  5.8561510E-01
   7147.00  5.7954430E-01
   7147.33  5.7317936E-01
   7147.67  5.6682600E-01
   7148.00  5.6072482E-01
   7148.33  5.5522212E-01
   7148.67  5.5052690E-01
   7149.00  5.4685247E-01
   7149.33  5.4454183E-01
   7149.67  5.4354761E-01
   7150.00  5.4387574E-01
   7150.33  5.4558076E-01
   7150.67  5.4829343E-01
   7151.00  5.5173163E-01
   7151.33  5.5552816E-01
   7151.67  5.5920467E-01
   7152.00  5.6237970E-01
   7152.33  5.6451149E-01
   7152.67  5.6534216E-01
   7153.00  5.6461809E-01
   7153.33  5.6192404E-01
   7153.67  5.5740101E-01
   7154.00  5.5107958E-01
   7154.33  5.4288028E-01
   7154.67  5.3322174E-01
   7155.00  5.2232918E-01
   7155.33  5.1036940E-01
   7155.67  4.9774603E-01
   7156.00  4.8469237E-01
   7156.33  4.7143239E-01
   7156.67  4.5819879E-01
   7157.00  4.4514331E-01
   7157.33  4.3245897E-01
   7157.67  4.2024006E-01
   7158.00  4.0859722E-01
   7158.33  3.9774600E-01
   7158.67  3.8772733E-01
   7159.00  3.7865035E-01
   7159.33  3.7076300E-01
   7159.67  3.6402227E-01
   7160.00  3.5847041E-01
   7160.33  3.5425353E-01
   7160.67  3.5116252E-01
   7161.00  3.4910148E-01
   7161.33  3.4803196E-01
   7161.67  3.4767807E-01
   7162.00  3.4789901E-01
   7162.33  3.4860540E-01
   7162.67  3.4962720E-01
   7163.00  3.5088817E-01
   7163.33  3.5233795E-01
   7163.67  3.5387315E-01
   7164.00  3.5541317E-01
   7164.33  3.5685324E-01
   7164.67  3.5812049E-01
   7165.00  3.5916230E-01
   7165.33  3.5992555E-01
   7165.67  3.6047025E-01
   7166.00  3.6085824E-01
   7166.33  3.6117969E-01
   7166.67  3.6155403E-01
   7167.00  3.6207927E-01
   7167.33  3.6289306E-01
   7167.67  3.6405132E-01
   7168.00  3.6561099E-01
   7168.33  3.6767044E-01
   7168.67  3.7019227E-01
   7169.00  3.7317361E-01
   7169.33  3.7664608E-01
   7169.67  3.8051214E-01
   7170.00  3.8471940E-01
   7170.33  3.8922159E-01
   7170.67  3.9388418E-01
   7171.00  3.9859434E-01
   7171.33  4.0315253E-01
   7171.67  4.0729524E-01
   7172.00  4.1069109E-01
