    FDMNES
    energy     <xanes>
   7097.00  4.0069802E-03
   7097.33  4.0880158E-03
   7097.67  4.1722674E-03
   7098.00  4.2599405E-03
   7098.33  4.3517605E-03
   7098.67  4.4475619E-03
   7099.00  4.5476257E-03
   7099.33  4.6528956E-03
   7099.67  4.7632054E-03
   7100.00  4.8789513E-03
   7100.33  5.0013994E-03
   7100.67  5.1304003E-03
   7101.00  5.2665341E-03
   7101.33  5.4115622E-03
   7101.67  5.5653928E-03
   7102.00  5.7289123E-03
   7102.33  5.9046826E-03
   7102.67  6.0927605E-03
   7103.00  6.2945733E-03
   7103.33  6.5140560E-03
   7103.67  6.7516266E-03
   7104.00  7.0097353E-03
   7104.33  7.2948515E-03
   7104.67  7.6082822E-03
   7105.00  7.9545857E-03
   7105.33  8.3453606E-03
   7105.67  8.7842386E-03
   7106.00  9.2806305E-03
   7106.33  9.8578432E-03
   7106.67  1.0526276E-02
   7107.00  1.1308301E-02
   7107.33  1.2258748E-02
   7107.67  1.3411340E-02
   7108.00  1.4831255E-02
   7108.33  1.6681303E-02
   7108.67  1.9100123E-02
   7109.00  2.2348218E-02
   7109.33  2.7126849E-02
   7109.67  3.4292333E-02
   7110.00  4.5539192E-02
   7110.33  6.5717183E-02
   7110.67  9.8746130E-02
   7111.00  1.3902055E-01
   7111.33  1.6183410E-01
   7111.67  1.7441797E-01
   7112.00  1.8738601E-01
   7112.33  1.9297794E-01
   7112.67  1.7891934E-01
   7113.00  1.4476993E-01
   7113.33  1.1037845E-01
   7113.67  8.5749900E-02
   7114.00  7.0431861E-02
   7114.33  6.1486402E-02
   7114.67  5.4084455E-02
   7115.00  4.7148408E-02
   7115.33  4.1359390E-02
   7115.67  3.7490350E-02
   7116.00  3.5394919E-02
   7116.33  3.4649666E-02
   7116.67  3.4695679E-02
   7117.00  3.5334667E-02
   7117.33  3.6522714E-02
   7117.67  3.8197276E-02
   7118.00  4.0414269E-02
   7118.33  4.3324275E-02
   7118.67  4.6842941E-02
   7119.00  5.0842827E-02
   7119.33  5.5052325E-02
   7119.67  5.9052130E-02
   7120.00  6.2497615E-02
   7120.33  6.5058271E-02
   7120.67  6.6995383E-02
   7121.00  6.8738840E-02
   7121.33  7.0860130E-02
   7121.67  7.3668060E-02
   7122.00  7.7351112E-02
   7122.33  8.2291375E-02
   7122.67  8.8731332E-02
   7123.00  9.7130370E-02
   7123.33  1.0848192E-01
   7123.67  1.2325812E-01
   7124.00  1.4226656E-01
   7124.33  1.6724195E-01
   7124.67  1.9852289E-01
   7125.00  2.3633975E-01
   7125.33  2.7945416E-01
   7125.67  3.2238850E-01
   7126.00  3.6002900E-01
   7126.33  3.8787363E-01
   7126.67  4.0714101E-01
   7127.00  4.1967890E-01
   7127.33  4.2852102E-01
   7127.67  4.3981232E-01
   7128.00  4.5929706E-01
   7128.33  4.9107590E-01
   7128.67  5.3221986E-01
   7129.00  5.8083695E-01
   7129.33  6.3698053E-01
   7129.67  7.0018896E-01
   7130.00  7.7057226E-01
   7130.33  8.4753584E-01
   7130.67  9.2684162E-01
   7131.00  1.0037743E+00
   7131.33  1.0705541E+00
   7131.67  1.1219357E+00
   7132.00  1.1539265E+00
   7132.33  1.1619133E+00
   7132.67  1.1497358E+00
   7133.00  1.1206214E+00
   7133.33  1.0789296E+00
   7133.67  1.0328707E+00
   7134.00  9.8763592E-01
   7134.33  9.4689532E-01
   7134.67  9.0974251E-01
   7135.00  8.7459889E-01
   7135.33  8.4057127E-01
   7135.67  8.0774767E-01
   7136.00  7.7670547E-01
   7136.33  7.4830514E-01
   7136.67  7.2255010E-01
   7137.00  6.9951164E-01
   7137.33  6.7947342E-01
   7137.67  6.6197990E-01
   7138.00  6.4690334E-01
   7138.33  6.3436070E-01
   7138.67  6.2388911E-01
   7139.00  6.1532007E-01
   7139.33  6.0865340E-01
   7139.67  6.0345475E-01
   7140.00  5.9953482E-01
   7140.33  5.9682402E-01
   7140.67  5.9501012E-01
   7141.00  5.9396506E-01
   7141.33  5.9364979E-01
   7141.67  5.9388954E-01
   7142.00  5.9461690E-01
   7142.33  5.9580646E-01
   7142.67  5.9732389E-01
   7143.00  5.9909760E-01
   7143.33  6.0105504E-01
   7143.67  6.0306398E-01
   7144.00  6.0503203E-01
   7144.33  6.0685882E-01
   7144.67  6.0851116E-01
   7145.00  6.0998002E-01
   7145.33  6.1127097E-01
   7145.67  6.1245060E-01
   7146.00  6.1355042E-01
   7146.33  6.1457676E-01
   7146.67  6.1553982E-01
   7147.00  6.1642338E-01
   7147.33  6.1715622E-01
   7147.67  6.1766756E-01
   7148.00  6.1786504E-01
   7148.33  6.1757662E-01
   7148.67  6.1673695E-01
   7149.00  6.1525095E-01
   7149.33  6.1293412E-01
   7149.67  6.0981494E-01
   7150.00  6.0586354E-01
   7150.33  6.0096575E-01
   7150.67  5.9524154E-01
   7151.00  5.8871900E-01
   7151.33  5.8134884E-01
   7151.67  5.7327030E-01
   7152.00  5.6451692E-01
   7152.33  5.5504174E-01
   7152.67  5.4495357E-01
   7153.00  5.3427559E-01
   7153.33  5.2296425E-01
   7153.67  5.1112019E-01
   7154.00  4.9877493E-01
   7154.33  4.8591408E-01
   7154.67  4.7265013E-01
   7155.00  4.5904117E-01
   7155.33  4.4513096E-01
   7155.67  4.3104097E-01
   7156.00  4.1685624E-01
   7156.33  4.0268644E-01
   7156.67  3.8864458E-01
   7157.00  3.7483114E-01
   7157.33  3.6140390E-01
   7157.67  3.4842937E-01
   7158.00  3.3599472E-01
   7158.33  3.2426839E-01
   7158.67  3.1324787E-01
   7159.00  3.0298870E-01
   7159.33  2.9364608E-01
   7159.67  2.8516109E-01
   7160.00  2.7756371E-01
   7160.33  2.7099642E-01
   7160.67  2.6536783E-01
   7161.00  2.6069406E-01
   7161.33  2.5711359E-01
   7161.67  2.5452644E-01
   7162.00  2.5295274E-01
   7162.33  2.5253449E-01
   7162.67  2.5313680E-01
   7163.00  2.5473666E-01
   7163.33  2.5739192E-01
   7163.67  2.6089403E-01
   7164.00  2.6513838E-01
   7164.33  2.7004602E-01
   7164.67  2.7537421E-01
   7165.00  2.8097577E-01
   7165.33  2.8670093E-01
   7165.67  2.9239172E-01
   7166.00  2.9794615E-01
   7166.33  3.0324699E-01
   7166.67  3.0826357E-01
   7167.00  3.1296703E-01
   7167.33  3.1731019E-01
   7167.67  3.2134827E-01
   7168.00  3.2510582E-01
   7168.33  3.2859000E-01
   7168.67  3.3187410E-01
   7169.00  3.3499607E-01
   7169.33  3.3798391E-01
   7169.67  3.4089142E-01
   7170.00  3.4374647E-01
   7170.33  3.4656815E-01
   7170.67  3.4936715E-01
   7171.00  3.5212993E-01
   7171.33  3.5478985E-01
   7171.67  3.5722795E-01
   7172.00  3.5925689E-01
