    FDMNES
    energy     <xanes>
   7097.00  4.2876542E-03
   7097.33  4.3710762E-03
   7097.67  4.4574259E-03
   7098.00  4.5468565E-03
   7098.33  4.6399704E-03
   7098.67  4.7365694E-03
   7099.00  4.8368502E-03
   7099.33  4.9415545E-03
   7099.67  5.0504665E-03
   7100.00  5.1638449E-03
   7100.33  5.2826221E-03
   7100.67  5.4065678E-03
   7101.00  5.5360327E-03
   7101.33  5.6722192E-03
   7101.67  5.8148931E-03
   7102.00  5.9645474E-03
   7102.33  6.1227847E-03
   7102.67  6.2893939E-03
   7103.00  6.4651006E-03
   7103.33  6.6521366E-03
   7103.67  6.8503801E-03
   7104.00  7.0609666E-03
   7104.33  7.2871929E-03
   7104.67  7.5291962E-03
   7105.00  7.7889034E-03
   7105.33  8.0716028E-03
   7105.67  8.3781569E-03
   7106.00  8.7122196E-03
   7106.33  9.0833316E-03
   7106.67  9.4945338E-03
   7107.00  9.9539192E-03
   7107.33  1.0481935E-02
   7107.67  1.1089255E-02
   7108.00  1.1798336E-02
   7108.33  1.2666024E-02
   7108.67  1.3737794E-02
   7109.00  1.5101457E-02
   7109.33  1.6994643E-02
   7109.67  1.9704277E-02
   7110.00  2.3802703E-02
   7110.33  3.0939614E-02
   7110.67  4.2509525E-02
   7111.00  5.6768965E-02
   7111.33  6.4149338E-02
   7111.67  6.4636886E-02
   7112.00  6.2969865E-02
   7112.33  6.0792275E-02
   7112.67  5.7516196E-02
   7113.00  5.3790106E-02
   7113.33  5.1390550E-02
   7113.67  5.0679189E-02
   7114.00  5.1443539E-02
   7114.33  5.3584187E-02
   7114.67  5.6845731E-02
   7115.00  6.1229319E-02
   7115.33  6.6935390E-02
   7115.67  7.3893064E-02
   7116.00  8.2176790E-02
   7116.33  9.2066498E-02
   7116.67  1.0350669E-01
   7117.00  1.1663857E-01
   7117.33  1.3189728E-01
   7117.67  1.4909717E-01
   7118.00  1.6804700E-01
   7118.33  1.8861216E-01
   7118.67  2.1062533E-01
   7119.00  2.3458608E-01
   7119.33  2.6193534E-01
   7119.67  2.9361249E-01
   7120.00  3.3076692E-01
   7120.33  3.7521784E-01
   7120.67  4.2559773E-01
   7121.00  4.7809278E-01
   7121.33  5.2129376E-01
   7121.67  5.4486270E-01
   7122.00  5.4697825E-01
   7122.33  5.3372957E-01
   7122.67  5.1616505E-01
   7123.00  4.9936212E-01
   7123.33  4.8655899E-01
   7123.67  4.7817222E-01
   7124.00  4.7421314E-01
   7124.33  4.7498057E-01
   7124.67  4.7980351E-01
   7125.00  4.8861507E-01
   7125.33  5.0156597E-01
   7125.67  5.1749510E-01
   7126.00  5.3550326E-01
   7126.33  5.5418411E-01
   7126.67  5.7126743E-01
   7127.00  5.8453621E-01
   7127.33  5.9177906E-01
   7127.67  5.9400060E-01
   7128.00  5.9243145E-01
   7128.33  5.8834658E-01
   7128.67  5.8314616E-01
   7129.00  5.7734341E-01
   7129.33  5.7112119E-01
   7129.67  5.6457754E-01
   7130.00  5.5771857E-01
   7130.33  5.5049119E-01
   7130.67  5.4293569E-01
   7131.00  5.3510748E-01
   7131.33  5.2718619E-01
   7131.67  5.1953107E-01
   7132.00  5.1253428E-01
   7132.33  5.0679239E-01
   7132.67  5.0246305E-01
   7133.00  4.9953729E-01
   7133.33  4.9771843E-01
   7133.67  4.9614831E-01
   7134.00  4.9426306E-01
   7134.33  4.9174198E-01
   7134.67  4.8880084E-01
   7135.00  4.8569928E-01
   7135.33  4.8274611E-01
   7135.67  4.8014354E-01
   7136.00  4.7801991E-01
   7136.33  4.7655663E-01
   7136.67  4.7577513E-01
   7137.00  4.7575731E-01
   7137.33  4.7670442E-01
   7137.67  4.7859226E-01
   7138.00  4.8147317E-01
   7138.33  4.8550010E-01
   7138.67  4.9051922E-01
   7139.00  4.9645632E-01
   7139.33  5.0325225E-01
   7139.67  5.1058289E-01
   7140.00  5.1820145E-01
   7140.33  5.2578239E-01
   7140.67  5.3301241E-01
   7141.00  5.3966075E-01
   7141.33  5.4545664E-01
   7141.67  5.5044304E-01
   7142.00  5.5466113E-01
   7142.33  5.5812411E-01
   7142.67  5.6103723E-01
   7143.00  5.6351295E-01
   7143.33  5.6563573E-01
   7143.67  5.6754730E-01
   7144.00  5.6931504E-01
   7144.33  5.7098502E-01
   7144.67  5.7260646E-01
   7145.00  5.7420159E-01
   7145.33  5.7578709E-01
   7145.67  5.7737592E-01
   7146.00  5.7897616E-01
   7146.33  5.8060492E-01
   7146.67  5.8227708E-01
   7147.00  5.8400361E-01
   7147.33  5.8580433E-01
   7147.67  5.8768529E-01
   7148.00  5.8966109E-01
   7148.33  5.9176482E-01
   7148.67  5.9400267E-01
   7149.00  5.9639300E-01
   7149.33  5.9897627E-01
   7149.67  6.0174269E-01
   7150.00  6.0469408E-01
   7150.33  6.0784427E-01
   7150.67  6.1115138E-01
   7151.00  6.1458556E-01
   7151.33  6.1810599E-01
   7151.67  6.2164057E-01
   7152.00  6.2512931E-01
   7152.33  6.2848401E-01
   7152.67  6.3164595E-01
   7153.00  6.3455287E-01
   7153.33  6.3709489E-01
   7153.67  6.3925281E-01
   7154.00  6.4098226E-01
   7154.33  6.4218155E-01
   7154.67  6.4287934E-01
   7155.00  6.4305948E-01
   7155.33  6.4264691E-01
   7155.67  6.4170846E-01
   7156.00  6.4025241E-01
   7156.33  6.3823085E-01
   7156.67  6.3572328E-01
   7157.00  6.3274506E-01
   7157.33  6.2925985E-01
   7157.67  6.2534406E-01
   7158.00  6.2101288E-01
   7158.33  6.1623165E-01
   7158.67  6.1106480E-01
   7159.00  6.0552461E-01
   7159.33  5.9958021E-01
   7159.67  5.9329235E-01
   7160.00  5.8667806E-01
   7160.33  5.7972393E-01
   7160.67  5.7249628E-01
   7161.00  5.6502235E-01
   7161.33  5.5731417E-01
   7161.67  5.4944818E-01
   7162.00  5.4146984E-01
   7162.33  5.3342047E-01
   7162.67  5.2536157E-01
   7163.00  5.1734306E-01
   7163.33  5.0943766E-01
   7163.67  5.0169354E-01
   7164.00  4.9415695E-01
   7164.33  4.8690638E-01
   7164.67  4.7994997E-01
   7165.00  4.7331509E-01
   7165.33  4.6706560E-01
   7165.67  4.6116745E-01
   7166.00  4.5561862E-01
   7166.33  4.5044714E-01
   7166.67  4.4558736E-01
   7167.00  4.4101476E-01
   7167.33  4.3673094E-01
   7167.67  4.3267393E-01
   7168.00  4.2882030E-01
   7168.33  4.2516823E-01
   7168.67  4.2167446E-01
   7169.00  4.1832441E-01
   7169.33  4.1512188E-01
   7169.67  4.1204307E-01
   7170.00  4.0908620E-01
   7170.33  4.0627061E-01
   7170.67  4.0359188E-01
   7171.00  4.0106887E-01
   7171.33  3.9876658E-01
   7171.67  3.9673656E-01
   7172.00  3.9507695E-01
