    FDMNES
    energy     <xanes>
   7097.00  4.8079666E-03
   7097.33  4.9184840E-03
   7097.67  5.0339939E-03
   7098.00  5.1548368E-03
   7098.33  5.2821729E-03
   7098.67  5.4157701E-03
   7099.00  5.5560934E-03
   7099.33  5.7046635E-03
   7099.67  5.8612440E-03
   7100.00  6.0264874E-03
   7100.33  6.2024391E-03
   7100.67  6.3888825E-03
   7101.00  6.5867615E-03
   7101.33  6.7989136E-03
   7101.67  7.0251952E-03
   7102.00  7.2670222E-03
   7102.33  7.5284795E-03
   7102.67  7.8096133E-03
   7103.00  8.1126440E-03
   7103.33  8.4437228E-03
   7103.67  8.8033518E-03
   7104.00  9.1952066E-03
   7104.33  9.6290853E-03
   7104.67  1.0106582E-02
   7105.00  1.0634212E-02
   7105.33  1.1228751E-02
   7105.67  1.1894532E-02
   7106.00  1.2644195E-02
   7106.33  1.3509359E-02
   7106.67  1.4501901E-02
   7107.00  1.5649574E-02
   7107.33  1.7020645E-02
   7107.67  1.8651186E-02
   7108.00  2.0614316E-02
   7108.33  2.3091266E-02
   7108.67  2.6217566E-02
   7109.00  3.0251336E-02
   7109.33  3.5871692E-02
   7109.67  4.3828591E-02
   7110.00  5.5594378E-02
   7110.33  7.5357165E-02
   7110.67  1.0703847E-01
   7111.00  1.4897309E-01
   7111.33  1.8482535E-01
   7111.67  2.2420309E-01
   7112.00  2.7410113E-01
   7112.33  2.9816473E-01
   7112.67  3.0280576E-01
   7113.00  3.2740465E-01
   7113.33  4.0535178E-01
   7113.67  4.7936175E-01
   7114.00  4.4702170E-01
   7114.33  3.4063814E-01
   7114.67  2.6731089E-01
   7115.00  2.2159292E-01
   7115.33  1.7893787E-01
   7115.67  1.4604628E-01
   7116.00  1.2793263E-01
   7116.33  1.2391357E-01
   7116.67  1.2970613E-01
   7117.00  1.4161953E-01
   7117.33  1.5088510E-01
   7117.67  1.5384652E-01
   7118.00  1.5309885E-01
   7118.33  1.4778271E-01
   7118.67  1.4137623E-01
   7119.00  1.3937481E-01
   7119.33  1.4341490E-01
   7119.67  1.4531226E-01
   7120.00  1.3943562E-01
   7120.33  1.2935036E-01
   7120.67  1.2116225E-01
   7121.00  1.1633340E-01
   7121.33  1.1484150E-01
   7121.67  1.1544954E-01
   7122.00  1.1763232E-01
   7122.33  1.2104314E-01
   7122.67  1.2483850E-01
   7123.00  1.2836074E-01
   7123.33  1.3154767E-01
   7123.67  1.3537605E-01
   7124.00  1.4074605E-01
   7124.33  1.4853808E-01
   7124.67  1.5872709E-01
   7125.00  1.7135721E-01
   7125.33  1.8658954E-01
   7125.67  2.0381597E-01
   7126.00  2.2289358E-01
   7126.33  2.4452138E-01
   7126.67  2.6860242E-01
   7127.00  2.9401089E-01
   7127.33  3.1735551E-01
   7127.67  3.3497041E-01
   7128.00  3.4591186E-01
   7128.33  3.5368253E-01
   7128.67  3.6402121E-01
   7129.00  3.7941765E-01
   7129.33  4.0021204E-01
   7129.67  4.2299286E-01
   7130.00  4.4438813E-01
   7130.33  4.6086283E-01
   7130.67  4.7312211E-01
   7131.00  4.8422326E-01
   7131.33  4.9992102E-01
   7131.67  5.2416835E-01
   7132.00  5.5845011E-01
   7132.33  6.0216990E-01
   7132.67  6.5100222E-01
   7133.00  7.0322499E-01
   7133.33  7.5879535E-01
   7133.67  8.1672425E-01
   7134.00  8.7583910E-01
   7134.33  9.3525373E-01
   7134.67  9.9386049E-01
   7135.00  1.0472191E+00
   7135.33  1.0833657E+00
   7135.67  1.0977501E+00
   7136.00  1.0910612E+00
   7136.33  1.0639333E+00
   7136.67  1.0216147E+00
   7137.00  9.6770201E-01
   7137.33  9.0690798E-01
   7137.67  8.4544653E-01
   7138.00  7.8702519E-01
   7138.33  7.3530762E-01
   7138.67  6.9122210E-01
   7139.00  6.5547540E-01
   7139.33  6.2927788E-01
   7139.67  6.1101766E-01
   7140.00  5.9964264E-01
   7140.33  5.9394788E-01
   7140.67  5.9110439E-01
   7141.00  5.8929888E-01
   7141.33  5.8684721E-01
   7141.67  5.8299637E-01
   7142.00  5.7765958E-01
   7142.33  5.7110053E-01
   7142.67  5.6410208E-01
   7143.00  5.5723149E-01
   7143.33  5.5112869E-01
   7143.67  5.4611305E-01
   7144.00  5.4242272E-01
   7144.33  5.4043081E-01
   7144.67  5.4006958E-01
   7145.00  5.4141537E-01
   7145.33  5.4476535E-01
   7145.67  5.4996221E-01
   7146.00  5.5705245E-01
   7146.33  5.6630846E-01
   7146.67  5.7747311E-01
   7147.00  5.9046251E-01
   7147.33  6.0526677E-01
   7147.67  6.2132401E-01
   7148.00  6.3818128E-01
   7148.33  6.5515076E-01
   7148.67  6.7137556E-01
   7149.00  6.8608946E-01
   7149.33  6.9819340E-01
   7149.67  7.0740136E-01
   7150.00  7.1348179E-01
   7150.33  7.1608710E-01
   7150.67  7.1589917E-01
   7151.00  7.1328989E-01
   7151.33  7.0848437E-01
   7151.67  7.0216202E-01
   7152.00  6.9464374E-01
   7152.33  6.8612041E-01
   7152.67  6.7693059E-01
   7153.00  6.6722244E-01
   7153.33  6.5708285E-01
   7153.67  6.4666591E-01
   7154.00  6.3605242E-01
   7154.33  6.2532739E-01
   7154.67  6.1459530E-01
   7155.00  6.0392751E-01
   7155.33  5.9341906E-01
   7155.67  5.8312641E-01
   7156.00  5.7311626E-01
   7156.33  5.6350421E-01
   7156.67  5.5429782E-01
   7157.00  5.4553127E-01
   7157.33  5.3729242E-01
   7157.67  5.2953973E-01
   7158.00  5.2227863E-01
   7158.33  5.1556578E-01
   7158.67  5.0932560E-01
   7159.00  5.0353760E-01
   7159.33  4.9822367E-01
   7159.67  4.9329823E-01
   7160.00  4.8873383E-01
   7160.33  4.8454288E-01
   7160.67  4.8066039E-01
   7161.00  4.7707231E-01
   7161.33  4.7380572E-01
   7161.67  4.7082344E-01
   7162.00  4.6812768E-01
   7162.33  4.6575719E-01
   7162.67  4.6367448E-01
   7163.00  4.6187495E-01
   7163.33  4.6038466E-01
   7163.67  4.5915742E-01
   7164.00  4.5817986E-01
   7164.33  4.5745618E-01
   7164.67  4.5692700E-01
   7165.00  4.5656807E-01
   7165.33  4.5636648E-01
   7165.67  4.5626778E-01
   7166.00  4.5623497E-01
   7166.33  4.5622075E-01
   7166.67  4.5616817E-01
   7167.00  4.5602747E-01
   7167.33  4.5572123E-01
   7167.67  4.5521197E-01
   7168.00  4.5445896E-01
   7168.33  4.5339318E-01
   7168.67  4.5203406E-01
   7169.00  4.5038716E-01
   7169.33  4.4844970E-01
   7169.67  4.4630604E-01
   7170.00  4.4401571E-01
   7170.33  4.4165780E-01
   7170.67  4.3933797E-01
   7171.00  4.3713240E-01
   7171.33  4.3514809E-01
   7171.67  4.3344668E-01
   7172.00  4.3210309E-01
