    FDMNES
    energy     <xanes>
   7097.00  5.1677797E-03
   7097.33  5.2922958E-03
   7097.67  5.4227684E-03
   7098.00  5.5596283E-03
   7098.33  5.7043014E-03
   7098.67  5.8565457E-03
   7099.00  6.0169603E-03
   7099.33  6.1874478E-03
   7099.67  6.3677771E-03
   7100.00  6.5588070E-03
   7100.33  6.7631519E-03
   7100.67  6.9806349E-03
   7101.00  7.2125305E-03
   7101.33  7.4625599E-03
   7101.67  7.7306952E-03
   7102.00  8.0189086E-03
   7102.33  8.3327264E-03
   7102.67  8.6724823E-03
   7103.00  9.0413860E-03
   7103.33  9.4480854E-03
   7103.67  9.8937701E-03
   7104.00  1.0384002E-02
   7104.33  1.0933229E-02
   7104.67  1.1544729E-02
   7105.00  1.2228933E-02
   7105.33  1.3012108E-02
   7105.67  1.3902981E-02
   7106.00  1.4923252E-02
   7106.33  1.6126364E-02
   7106.67  1.7536939E-02
   7107.00  1.9206993E-02
   7107.33  2.1263699E-02
   7107.67  2.3786726E-02
   7108.00  2.6928913E-02
   7108.33  3.1071821E-02
   7108.67  3.6543425E-02
   7109.00  4.3958028E-02
   7109.33  5.4967598E-02
   7109.67  7.1590078E-02
   7110.00  9.7818871E-02
   7110.33  1.4528584E-01
   7110.67  2.2566531E-01
   7111.00  3.3423224E-01
   7111.33  4.0256274E-01
   7111.67  4.0772650E-01
   7112.00  3.8355092E-01
   7112.33  3.2764809E-01
   7112.67  2.7205519E-01
   7113.00  2.2914090E-01
   7113.33  1.8879187E-01
   7113.67  1.5425075E-01
   7114.00  1.3218785E-01
   7114.33  1.2460586E-01
   7114.67  1.2877969E-01
   7115.00  1.4549065E-01
   7115.33  1.7868220E-01
   7115.67  2.2364617E-01
   7116.00  2.6683058E-01
   7116.33  2.8930507E-01
   7116.67  2.9456598E-01
   7117.00  2.8607352E-01
   7117.33  2.6559567E-01
   7117.67  2.4220717E-01
   7118.00  2.2079997E-01
   7118.33  2.0187760E-01
   7118.67  1.8346293E-01
   7119.00  1.6560716E-01
   7119.33  1.4981177E-01
   7119.67  1.3674693E-01
   7120.00  1.2654957E-01
   7120.33  1.1914968E-01
   7120.67  1.1363333E-01
   7121.00  1.0958449E-01
   7121.33  1.0705645E-01
   7121.67  1.0628231E-01
   7122.00  1.0786777E-01
   7122.33  1.1282165E-01
   7122.67  1.2133185E-01
   7123.00  1.3409931E-01
   7123.33  1.5304160E-01
   7123.67  1.7851484E-01
   7124.00  2.0958007E-01
   7124.33  2.4020715E-01
   7124.67  2.6224955E-01
   7125.00  2.7441403E-01
   7125.33  2.8250446E-01
   7125.67  2.9368737E-01
   7126.00  3.1072610E-01
   7126.33  3.3430985E-01
   7126.67  3.6070944E-01
   7127.00  3.8566978E-01
   7127.33  4.0442168E-01
   7127.67  4.1791872E-01
   7128.00  4.2975322E-01
   7128.33  4.4469517E-01
   7128.67  4.6464780E-01
   7129.00  4.9004090E-01
   7129.33  5.2109462E-01
   7129.67  5.5614633E-01
   7130.00  5.9396496E-01
   7130.33  6.3287464E-01
   7130.67  6.7076379E-01
   7131.00  7.0608594E-01
   7131.33  7.3710964E-01
   7131.67  7.6379396E-01
   7132.00  7.8624528E-01
   7132.33  8.0461041E-01
   7132.67  8.2012102E-01
   7133.00  8.3319936E-01
   7133.33  8.4327178E-01
   7133.67  8.4952449E-01
   7134.00  8.5059560E-01
   7134.33  8.4455653E-01
   7134.67  8.3227943E-01
   7135.00  8.1480938E-01
   7135.33  7.9342737E-01
   7135.67  7.7021094E-01
   7136.00  7.4634279E-01
   7136.33  7.2305262E-01
   7136.67  7.0121326E-01
   7137.00  6.8134187E-01
   7137.33  6.6386039E-01
   7137.67  6.4826646E-01
   7138.00  6.3425578E-01
   7138.33  6.2180002E-01
   7138.67  6.1080133E-01
   7139.00  6.0147415E-01
   7139.33  5.9429148E-01
   7139.67  5.8908618E-01
   7140.00  5.8576451E-01
   7140.33  5.8431396E-01
   7140.67  5.8428412E-01
   7141.00  5.8550056E-01
   7141.33  5.8794092E-01
   7141.67  5.9132615E-01
   7142.00  5.9551842E-01
   7142.33  6.0039159E-01
   7142.67  6.0561007E-01
   7143.00  6.1090623E-01
   7143.33  6.1590087E-01
   7143.67  6.2027545E-01
   7144.00  6.2374931E-01
   7144.33  6.2590140E-01
   7144.67  6.2668170E-01
   7145.00  6.2599151E-01
   7145.33  6.2361061E-01
   7145.67  6.1977653E-01
   7146.00  6.1458863E-01
   7146.33  6.0806832E-01
   7146.67  6.0057781E-01
   7147.00  5.9232604E-01
   7147.33  5.8351006E-01
   7147.67  5.7445698E-01
   7148.00  5.6538728E-01
   7148.33  5.5656847E-01
   7148.67  5.4819311E-01
   7149.00  5.4041803E-01
   7149.33  5.3343202E-01
   7149.67  5.2718833E-01
   7150.00  5.2169829E-01
   7150.33  5.1704267E-01
   7150.67  5.1309130E-01
   7151.00  5.0979497E-01
   7151.33  5.0715423E-01
   7151.67  5.0501411E-01
   7152.00  5.0330146E-01
   7152.33  5.0197602E-01
   7152.67  5.0091740E-01
   7153.00  5.0006863E-01
   7153.33  4.9939966E-01
   7153.67  4.9885629E-01
   7154.00  4.9841979E-01
   7154.33  4.9809409E-01
   7154.67  4.9787136E-01
   7155.00  4.9776265E-01
   7155.33  4.9780107E-01
   7155.67  4.9798636E-01
   7156.00  4.9832971E-01
   7156.33  4.9885903E-01
   7156.67  4.9955036E-01
   7157.00  5.0039014E-01
   7157.33  5.0136246E-01
   7157.67  5.0240368E-01
   7158.00  5.0345853E-01
   7158.33  5.0444393E-01
   7158.67  5.0528702E-01
   7159.00  5.0592121E-01
   7159.33  5.0624631E-01
   7159.67  5.0625049E-01
   7160.00  5.0591379E-01
   7160.33  5.0519818E-01
   7160.67  5.0417644E-01
   7161.00  5.0289043E-01
   7161.33  5.0137519E-01
   7161.67  4.9972277E-01
   7162.00  4.9799047E-01
   7162.33  4.9623885E-01
   7162.67  4.9452593E-01
   7163.00  4.9289299E-01
   7163.33  4.9139444E-01
   7163.67  4.9004352E-01
   7164.00  4.8885649E-01
   7164.33  4.8786811E-01
   7164.67  4.8706111E-01
   7165.00  4.8643358E-01
   7165.33  4.8599955E-01
   7165.67  4.8572517E-01
   7166.00  4.8559629E-01
   7166.33  4.8560938E-01
   7166.67  4.8572556E-01
   7167.00  4.8592123E-01
   7167.33  4.8617313E-01
   7167.67  4.8644876E-01
   7168.00  4.8673015E-01
   7168.33  4.8699464E-01
   7168.67  4.8722314E-01
   7169.00  4.8739778E-01
   7169.33  4.8749194E-01
   7169.67  4.8750194E-01
   7170.00  4.8742075E-01
   7170.33  4.8723290E-01
   7170.67  4.8695356E-01
   7171.00  4.8659307E-01
   7171.33  4.8616939E-01
   7171.67  4.8573625E-01
   7172.00  4.8535424E-01
