    FDMNES
    energy     <xanes>
   7097.00  4.4816350E-03
   7097.33  4.5784719E-03
   7097.67  4.6794873E-03
   7098.00  4.7849601E-03
   7098.33  4.8958516E-03
   7098.67  5.0119602E-03
   7099.00  5.1336673E-03
   7099.33  5.2622295E-03
   7099.67  5.3974431E-03
   7100.00  5.5398438E-03
   7100.33  5.6911214E-03
   7100.67  5.8510911E-03
   7101.00  6.0205319E-03
   7101.33  6.2017923E-03
   7101.67  6.3947556E-03
   7102.00  6.6006001E-03
   7102.33  6.8227250E-03
   7102.67  7.0611903E-03
   7103.00  7.3178682E-03
   7103.33  7.5979295E-03
   7103.67  7.9018642E-03
   7104.00  8.2328309E-03
   7104.33  8.5992059E-03
   7104.67  9.0025310E-03
   7105.00  9.4485596E-03
   7105.33  9.9520090E-03
   7105.67  1.0517144E-02
   7106.00  1.1155553E-02
   7106.33  1.1896069E-02
   7106.67  1.2750775E-02
   7107.00  1.3746471E-02
   7107.33  1.4948983E-02
   7107.67  1.6396889E-02
   7108.00  1.8165957E-02
   7108.33  2.0445167E-02
   7108.67  2.3389830E-02
   7109.00  2.7292973E-02
   7109.33  3.2938739E-02
   7109.67  4.1260856E-02
   7110.00  5.4107311E-02
   7110.33  7.6855842E-02
   7110.67  1.1500417E-01
   7111.00  1.6694942E-01
   7111.33  1.9943833E-01
   7111.67  1.9479416E-01
   7112.00  1.8136114E-01
   7112.33  1.9590583E-01
   7112.67  2.4022217E-01
   7113.00  2.9042230E-01
   7113.33  2.7594080E-01
   7113.67  2.1305074E-01
   7114.00  1.5441250E-01
   7114.33  1.1915477E-01
   7114.67  9.8618933E-02
   7115.00  8.7873604E-02
   7115.33  8.4942518E-02
   7115.67  8.8156549E-02
   7116.00  9.7341896E-02
   7116.33  1.1323211E-01
   7116.67  1.3562064E-01
   7117.00  1.6421351E-01
   7117.33  1.9422745E-01
   7117.67  2.1424081E-01
   7118.00  2.1632206E-01
   7118.33  2.0227137E-01
   7118.67  1.8517109E-01
   7119.00  1.7117066E-01
   7119.33  1.6189012E-01
   7119.67  1.5565192E-01
   7120.00  1.5219807E-01
   7120.33  1.5250488E-01
   7120.67  1.5651082E-01
   7121.00  1.6383490E-01
   7121.33  1.7385390E-01
   7121.67  1.8543457E-01
   7122.00  1.9799374E-01
   7122.33  2.1092391E-01
   7122.67  2.2351277E-01
   7123.00  2.3513675E-01
   7123.33  2.4498586E-01
   7123.67  2.5330713E-01
   7124.00  2.6102241E-01
   7124.33  2.6987496E-01
   7124.67  2.8078468E-01
   7125.00  2.9363493E-01
   7125.33  3.0721354E-01
   7125.67  3.1942047E-01
   7126.00  3.2894489E-01
   7126.33  3.3606112E-01
   7126.67  3.4357223E-01
   7127.00  3.5342597E-01
   7127.33  3.6639422E-01
   7127.67  3.8103168E-01
   7128.00  3.9617365E-01
   7128.33  4.1092493E-01
   7128.67  4.2503083E-01
   7129.00  4.3837739E-01
   7129.33  4.5056568E-01
   7129.67  4.6129037E-01
   7130.00  4.7019869E-01
   7130.33  4.7679802E-01
   7130.67  4.8133126E-01
   7131.00  4.8402610E-01
   7131.33  4.8538846E-01
   7131.67  4.8651041E-01
   7132.00  4.8814801E-01
   7132.33  4.9099718E-01
   7132.67  4.9512239E-01
   7133.00  5.0045765E-01
   7133.33  5.0679455E-01
   7133.67  5.1347345E-01
   7134.00  5.1992480E-01
   7134.33  5.2546319E-01
   7134.67  5.2988609E-01
   7135.00  5.3322750E-01
   7135.33  5.3572190E-01
   7135.67  5.3795569E-01
   7136.00  5.4036294E-01
   7136.33  5.4344229E-01
   7136.67  5.4740876E-01
   7137.00  5.5239488E-01
   7137.33  5.5856264E-01
   7137.67  5.6570156E-01
   7138.00  5.7367953E-01
   7138.33  5.8238186E-01
   7138.67  5.9152262E-01
   7139.00  6.0094085E-01
   7139.33  6.1050158E-01
   7139.67  6.2007740E-01
   7140.00  6.2959012E-01
   7140.33  6.3892241E-01
   7140.67  6.4796182E-01
   7141.00  6.5655548E-01
   7141.33  6.6441451E-01
   7141.67  6.7143070E-01
   7142.00  6.7750659E-01
   7142.33  6.8254038E-01
   7142.67  6.8680473E-01
   7143.00  6.9051555E-01
   7143.33  6.9392382E-01
   7143.67  6.9729574E-01
   7144.00  7.0073115E-01
   7144.33  7.0420546E-01
   7144.67  7.0753921E-01
   7145.00  7.1049522E-01
   7145.33  7.1264307E-01
   7145.67  7.1370308E-01
   7146.00  7.1339503E-01
   7146.33  7.1129774E-01
   7146.67  7.0753240E-01
   7147.00  7.0215857E-01
   7147.33  6.9521034E-01
   7147.67  6.8719322E-01
   7148.00  6.7845299E-01
   7148.33  6.6937836E-01
   7148.67  6.6040965E-01
   7149.00  6.5184590E-01
   7149.33  6.4404610E-01
   7149.67  6.3711438E-01
   7150.00  6.3114729E-01
   7150.33  6.2631276E-01
   7150.67  6.2246490E-01
   7151.00  6.1954530E-01
   7151.33  6.1754803E-01
   7151.67  6.1622874E-01
   7152.00  6.1544751E-01
   7152.33  6.1507672E-01
   7152.67  6.1489811E-01
   7153.00  6.1477124E-01
   7153.33  6.1453855E-01
   7153.67  6.1409336E-01
   7154.00  6.1335922E-01
   7154.33  6.1223315E-01
   7154.67  6.1072921E-01
   7155.00  6.0884302E-01
   7155.33  6.0654252E-01
   7155.67  6.0390249E-01
   7156.00  6.0095472E-01
   7156.33  5.9770465E-01
   7156.67  5.9422213E-01
   7157.00  5.9053343E-01
   7157.33  5.8663829E-01
   7157.67  5.8257350E-01
   7158.00  5.7834431E-01
   7158.33  5.7392964E-01
   7158.67  5.6934604E-01
   7159.00  5.6459179E-01
   7159.33  5.5965040E-01
   7159.67  5.5454960E-01
   7160.00  5.4929722E-01
   7160.33  5.4389084E-01
   7160.67  5.3836784E-01
   7161.00  5.3274649E-01
   7161.33  5.2703931E-01
   7161.67  5.2128059E-01
   7162.00  5.1549398E-01
   7162.33  5.0971181E-01
   7162.67  5.0397277E-01
   7163.00  4.9831799E-01
   7163.33  4.9282128E-01
   7163.67  4.8752877E-01
   7164.00  4.8249881E-01
   7164.33  4.7783896E-01
   7164.67  4.7356694E-01
   7165.00  4.6972330E-01
   7165.33  4.6639816E-01
   7165.67  4.6355004E-01
   7166.00  4.6118051E-01
   7166.33  4.5933695E-01
   7166.67  4.5793784E-01
   7167.00  4.5695570E-01
   7167.33  4.5639974E-01
   7167.67  4.5618050E-01
   7168.00  4.5626027E-01
   7168.33  4.5662616E-01
   7168.67  4.5720169E-01
   7169.00  4.5794876E-01
   7169.33  4.5884016E-01
   7169.67  4.5981816E-01
   7170.00  4.6084824E-01
   7170.33  4.6189380E-01
   7170.67  4.6291727E-01
   7171.00  4.6388920E-01
   7171.33  4.6476323E-01
   7171.67  4.6550873E-01
   7172.00  4.6608427E-01
