    FDMNES
    energy     <xanes>
   7097.00  4.0267420E-03
   7097.33  4.1022594E-03
   7097.67  4.1804843E-03
   7098.00  4.2615724E-03
   7098.33  4.3461054E-03
   7098.67  4.4339206E-03
   7099.00  4.5252260E-03
   7099.33  4.6207597E-03
   7099.67  4.7203520E-03
   7100.00  4.8242890E-03
   7100.33  4.9335342E-03
   7100.67  5.0479207E-03
   7101.00  5.1678572E-03
   7101.33  5.2946455E-03
   7101.67  5.4281454E-03
   7102.00  5.5689662E-03
   7102.33  5.7189440E-03
   7102.67  5.8780197E-03
   7103.00  6.0471506E-03
   7103.33  6.2290691E-03
   7103.67  6.4239252E-03
   7104.00  6.6333226E-03
   7104.33  6.8616131E-03
   7104.67  7.1094719E-03
   7105.00  7.3798124E-03
   7105.33  7.6801940E-03
   7105.67  8.0126697E-03
   7106.00  8.3831106E-03
   7106.33  8.8062345E-03
   7106.67  9.2880675E-03
   7107.00  9.8422018E-03
   7107.33  1.0502114E-02
   7107.67  1.1287226E-02
   7108.00  1.2235828E-02
   7108.33  1.3443293E-02
   7108.67  1.4986954E-02
   7109.00  1.7012334E-02
   7109.33  1.9905982E-02
   7109.67  2.4117340E-02
   7110.00  3.0528681E-02
   7110.33  4.1683937E-02
   7110.67  6.0228336E-02
   7111.00  8.6393455E-02
   7111.33  1.1181468E-01
   7111.67  1.2962062E-01
   7112.00  1.3798150E-01
   7112.33  1.2982276E-01
   7112.67  1.0917005E-01
   7113.00  8.6963695E-02
   7113.33  7.0543303E-02
   7113.67  5.9751602E-02
   7114.00  5.2990610E-02
   7114.33  4.7732112E-02
   7114.67  4.2870550E-02
   7115.00  3.9073640E-02
   7115.33  3.7119561E-02
   7115.67  3.6501161E-02
   7116.00  3.6765783E-02
   7116.33  3.7546071E-02
   7116.67  3.8680100E-02
   7117.00  4.0371411E-02
   7117.33  4.3038421E-02
   7117.67  4.6728424E-02
   7118.00  5.1414731E-02
   7118.33  5.6965194E-02
   7118.67  6.2833477E-02
   7119.00  6.8524103E-02
   7119.33  7.3450248E-02
   7119.67  7.7485191E-02
   7120.00  8.0793258E-02
   7120.33  8.3933125E-02
   7120.67  8.7682336E-02
   7121.00  9.2687203E-02
   7121.33  9.9940533E-02
   7121.67  1.1000604E-01
   7122.00  1.2370487E-01
   7122.33  1.4269601E-01
   7122.67  1.6705613E-01
   7123.00  1.9563031E-01
   7123.33  2.2225029E-01
   7123.67  2.4010822E-01
   7124.00  2.5058894E-01
   7124.33  2.6130159E-01
   7124.67  2.7649543E-01
   7125.00  2.9607877E-01
   7125.33  3.1816399E-01
   7125.67  3.3996426E-01
   7126.00  3.6090117E-01
   7126.33  3.8343925E-01
   7126.67  4.1111604E-01
   7127.00  4.4663815E-01
   7127.33  4.9269423E-01
   7127.67  5.4731430E-01
   7128.00  6.0797424E-01
   7128.33  6.7035265E-01
   7128.67  7.2889910E-01
   7129.00  7.7894634E-01
   7129.33  8.1438403E-01
   7129.67  8.3546364E-01
   7130.00  8.4486413E-01
   7130.33  8.4842973E-01
   7130.67  8.5333922E-01
   7131.00  8.6255582E-01
   7131.33  8.7584799E-01
   7131.67  8.8926470E-01
   7132.00  9.0007014E-01
   7132.33  9.0715426E-01
   7132.67  9.1244466E-01
   7133.00  9.1734762E-01
   7133.33  9.2200426E-01
   7133.67  9.2498731E-01
   7134.00  9.2485704E-01
   7134.33  9.2100420E-01
   7134.67  9.1520421E-01
   7135.00  9.0839993E-01
   7135.33  9.0022847E-01
   7135.67  8.8986165E-01
   7136.00  8.7658612E-01
   7136.33  8.5973110E-01
   7136.67  8.4002382E-01
   7137.00  8.1809334E-01
   7137.33  7.9470929E-01
   7137.67  7.7098346E-01
   7138.00  7.4762196E-01
   7138.33  7.2534761E-01
   7138.67  7.0437991E-01
   7139.00  6.8482897E-01
   7139.33  6.6685235E-01
   7139.67  6.5017832E-01
   7140.00  6.3471034E-01
   7140.33  6.2049317E-01
   7140.67  6.0732953E-01
   7141.00  5.9519938E-01
   7141.33  5.8423089E-01
   7141.67  5.7431372E-01
   7142.00  5.6547893E-01
   7142.33  5.5788150E-01
   7142.67  5.5137402E-01
   7143.00  5.4592656E-01
   7143.33  5.4159353E-01
   7143.67  5.3813901E-01
   7144.00  5.3543316E-01
   7144.33  5.3336153E-01
   7144.67  5.3164447E-01
   7145.00  5.3009634E-01
   7145.33  5.2850899E-01
   7145.67  5.2672097E-01
   7146.00  5.2463924E-01
   7146.33  5.2218666E-01
   7146.67  5.1944627E-01
   7147.00  5.1650156E-01
   7147.33  5.1346275E-01
   7147.67  5.1044999E-01
   7148.00  5.0752874E-01
   7148.33  5.0475229E-01
   7148.67  5.0210864E-01
   7149.00  4.9958913E-01
   7149.33  4.9720031E-01
   7149.67  4.9492476E-01
   7150.00  4.9276022E-01
   7150.33  4.9071148E-01
   7150.67  4.8874742E-01
   7151.00  4.8684053E-01
   7151.33  4.8494102E-01
   7151.67  4.8297364E-01
   7152.00  4.8086036E-01
   7152.33  4.7847261E-01
   7152.67  4.7573448E-01
   7153.00  4.7255189E-01
   7153.33  4.6875259E-01
   7153.67  4.6431023E-01
   7154.00  4.5915211E-01
   7154.33  4.5310837E-01
   7154.67  4.4622438E-01
   7155.00  4.3847315E-01
   7155.33  4.2973944E-01
   7155.67  4.2015739E-01
   7156.00  4.0977557E-01
   7156.33  3.9859313E-01
   7156.67  3.8681949E-01
   7157.00  3.7458071E-01
   7157.33  3.6200919E-01
   7157.67  3.4933630E-01
   7158.00  3.3674473E-01
   7158.33  3.2449218E-01
   7158.67  3.1276064E-01
   7159.00  3.0173200E-01
   7159.33  2.9171364E-01
   7159.67  2.8276307E-01
   7160.00  2.7500135E-01
   7160.33  2.6869867E-01
   7160.67  2.6376629E-01
   7161.00  2.6024435E-01
   7161.33  2.5833489E-01
   7161.67  2.5784869E-01
   7162.00  2.5874456E-01
   7162.33  2.6109845E-01
   7162.67  2.6463335E-01
   7163.00  2.6922742E-01
   7163.33  2.7482224E-01
   7163.67  2.8112588E-01
   7164.00  2.8798295E-01
   7164.33  2.9526567E-01
   7164.67  3.0276614E-01
   7165.00  3.1036371E-01
   7165.33  3.1794055E-01
   7165.67  3.2541288E-01
   7166.00  3.3273117E-01
   7166.33  3.3984175E-01
   7166.67  3.4676065E-01
   7167.00  3.5349720E-01
   7167.33  3.6005914E-01
   7167.67  3.6650478E-01
   7168.00  3.7287066E-01
   7168.33  3.7919184E-01
   7168.67  3.8550390E-01
   7169.00  3.9182096E-01
   7169.33  3.9814205E-01
   7169.67  4.0444364E-01
   7170.00  4.1068815E-01
   7170.33  4.1679720E-01
   7170.67  4.2270171E-01
   7171.00  4.2831030E-01
   7171.33  4.3342757E-01
   7171.67  4.3790221E-01
   7172.00  4.4150043E-01
