  7112.000   26  1  1  8.7946504E-03 -1.5423043E+00 -1.4458116E+00  1  1  7.2652381E+03  0.0000000E+00  0.0000000E+00  1.5612997E+00  1.0000000E+00  0.0000000E+00 = E_edge, Z, n_edge, j_edge, Abs_before_edge, VO_interstitial, E_cut, ninitl, ninit1, Epsii, UnitCell_Volume, Surface_ref, f0_forward, natomsym_f, abs_u_i
    Energy    <xanes>    
   7097.00  1.9277700E-05
   7097.20  1.9254033E-05
   7097.40  1.9245700E-05
   7097.60  1.9249598E-05
   7097.80  1.9264257E-05
   7098.00  1.9289042E-05
   7098.20  1.9323822E-05
   7098.40  1.9368793E-05
   7098.60  1.9424447E-05
   7098.80  1.9491514E-05
   7099.00  1.9570950E-05
   7099.20  1.9664037E-05
   7099.40  1.9772359E-05
   7099.60  1.9897886E-05
   7099.80  2.0043168E-05
   7100.00  2.0211457E-05
   7100.20  2.0406930E-05
   7100.40  2.0635159E-05
   7100.60  2.0903615E-05
   7100.80  2.1222539E-05
   7101.00  2.1606465E-05
   7101.20  2.2076612E-05
   7101.40  2.2665053E-05
   7101.60  2.3422471E-05
   7101.80  2.4433176E-05
   7102.00  2.5847397E-05
   7102.20  2.7955511E-05
   7102.40  3.1384608E-05
   7102.60  3.7717733E-05
   7102.80  5.2033193E-05
   7103.00  9.9195167E-05
   7103.20  5.4053986E-04
   7103.40  1.2811298E-03
   7103.60  1.4304970E-04
   7103.80  6.1096152E-04
   7104.00  3.7419778E-04
   7104.20  2.1291802E-04
   7104.40  6.0902612E-05
   7104.60  4.8462565E-05
   7104.80  5.5950873E-05
   7105.00  1.4789540E-04
   7105.20  8.1714156E-04
   7105.40  7.4582887E-05
   7105.60  5.6086585E-05
   7105.80  8.4504165E-05
   7106.00  1.7188475E-02
   7106.20  8.7983482E-05
   7106.40  5.9588010E-05
   7106.60  6.9488212E-05
   7106.80  2.1866605E-04
   7107.00  5.2660819E-04
   7107.20  1.2110666E-04
   7107.40  1.1416310E-04
   7107.60  2.4260353E-04
   7107.80  2.1075559E-03
   7108.00  5.5262190E-02
   7108.20  1.6124306E-02
   7108.40  1.8838266E-03
   7108.60  2.8288889E-04
   7108.80  5.6789278E-04
   7109.00  6.5787633E-04
   7109.20  3.5236921E-04
   7109.40  6.9310488E-04
   7109.60  3.0948587E-03
   7109.80  1.8856492E-02
   7110.00  1.1710769E-03
   7110.20  2.1064664E-02
   7110.40  5.0289022E-03
   7110.60  3.2878702E-03
   7110.80  8.3523265E-03
   7111.00  1.1467625E-02
   7111.20  2.1170066E-02
   7111.40  6.4037716E-03
   7111.60  1.9294847E-02
   7111.80  3.4074432E-03
   7112.00  2.0755188E-03
   7112.20  1.8836807E-03
   7112.40  2.3190775E-03
   7112.60  5.2926825E-03
   7112.80  1.0896455E-02
   7113.00  1.9760746E-02
   7113.20  1.0959247E-02
   7113.40  1.2191908E-02
   7113.60  1.7255719E-02
   7113.80  2.4990839E-02
   7114.00  3.1219445E-02
   7114.20  3.1438059E-02
   7114.40  3.7407261E-02
   7114.60  5.8697726E-02
   7114.80  8.9656435E-02
   7115.00  1.1059285E-01
   7115.20  8.9522614E-02
   7115.40  5.2542392E-02
   7115.60  3.4026593E-02
   7115.80  2.4749710E-02
   7116.00  1.9485129E-02
   7116.20  1.6190850E-02
   7116.40  1.3991911E-02
   7116.60  1.2453939E-02
   7116.80  1.1354437E-02
   7117.00  1.0576243E-02
   7117.20  9.9262338E-03
   7117.40  9.6810540E-03
   7117.60  9.7189164E-03
   7117.80  1.0108945E-02
   7118.00  1.0877250E-02
   7118.20  1.1727131E-02
   7118.40  1.1982075E-02
   7118.60  1.1546224E-02
   7118.80  1.0837814E-02
   7119.00  9.9815065E-03
   7119.20  9.0168883E-03
   7119.40  8.0630919E-03
   7119.60  7.2400642E-03
   7119.80  6.6025038E-03
   7120.00  6.1443941E-03
   7120.20  5.8436407E-03
   7120.40  5.6688363E-03
   7120.60  5.5724314E-03
   7120.80  5.5043358E-03
   7121.00  5.4211104E-03
   7121.20  5.2954711E-03
   7121.40  5.1345990E-03
   7121.60  4.9687489E-03
   7121.80  4.8110252E-03
   7122.00  4.6894382E-03
   7122.20  4.7060266E-03
   7122.40  4.8633215E-03
   7122.60  5.0518734E-03
   7122.80  5.2252860E-03
   7123.00  5.3831367E-03
   7123.20  5.5339017E-03
   7123.40  5.6863149E-03
   7123.60  5.8485617E-03
   7123.80  6.0265383E-03
   7124.00  6.2226287E-03
   7124.20  6.4463345E-03
   7124.40  6.6796976E-03
   7124.60  6.9280338E-03
   7124.80  7.1898791E-03
   7125.00  7.4662579E-03
   7125.20  7.7610534E-03
   7125.40  8.0803396E-03
   7125.60  8.4311627E-03
   7125.80  8.8198690E-03
   7126.00  9.2510277E-03
   7126.20  9.7319046E-03
   7126.40  1.0272293E-02
   7126.60  1.0879188E-02
   7126.80  1.1554113E-02
   7127.00  1.2299572E-02
   7127.20  1.3115229E-02
   7127.40  1.3994755E-02
   7127.60  1.4996635E-02
   7127.80  1.5971166E-02
   7128.00  1.6958063E-02
   7128.20  1.7929960E-02
   7128.40  1.8863104E-02
   7128.60  1.9736694E-02
   7128.80  2.0544020E-02
   7129.00  2.1292227E-02
   7129.20  2.2002056E-02
   7129.40  2.2704044E-02
   7129.60  2.3463313E-02
   7129.80  2.4260781E-02
   7130.00  2.5185099E-02
   7130.20  2.6248501E-02
   7130.40  2.7554319E-02
   7130.60  2.9241919E-02
   7130.80  3.1423296E-02
   7131.00  3.4171760E-02
   7131.20  3.7519927E-02
   7131.40  4.1448048E-02
   7131.60  4.5815582E-02
   7131.80  5.0254775E-02
   7132.00  5.4189987E-02
   7132.20  5.7114454E-02
   7132.40  5.8910892E-02
   7132.60  5.9858381E-02
   7132.80  6.0381027E-02
   7133.00  6.0845954E-02
   7133.20  6.1506578E-02
   7133.40  6.2524390E-02
   7133.60  6.4002090E-02
   7133.80  6.6006282E-02
   7134.00  6.8561248E-02
   7134.20  7.1625441E-02
   7134.40  7.5066462E-02
   7134.60  7.8627935E-02
   7134.80  8.1922440E-02
   7135.00  8.4476304E-02
   7135.20  8.5836267E-02
   7135.40  8.5705577E-02
   7135.60  8.4047322E-02
   7135.80  8.1090098E-02
   7136.00  7.7226205E-02
   7136.20  7.2868896E-02
   7136.40  6.8352358E-02
   7136.60  6.3901864E-02
   7136.80  5.9648844E-02
   7137.00  5.5659606E-02
   7137.20  5.1961443E-02
   7137.40  4.8559833E-02
   7137.60  4.5449247E-02
   7137.80  4.2620399E-02
   7138.00  4.0063977E-02
   7138.20  3.7771406E-02
   7138.40  3.5737377E-02
   7138.60  3.3959525E-02
   7138.80  3.2439812E-02
   7139.00  3.1182998E-02
   7139.20  3.0197646E-02
   7139.40  2.9494185E-02
   7139.60  2.9083122E-02
   7139.80  2.8972059E-02
   7140.00  2.9153750E-02
   7140.20  2.9610538E-02
   7140.40  3.0304078E-02
   7140.60  3.1165934E-02
   7140.80  3.2098324E-02
   7141.00  3.2985514E-02
   7141.20  3.3716007E-02
   7141.40  3.4209852E-02
   7141.60  3.4436905E-02
   7141.80  3.4417529E-02
   7142.00  3.4207880E-02
   7142.20  3.3879497E-02
   7142.40  3.3501784E-02
   7142.60  3.3132312E-02
   7142.80  3.2813770E-02
   7143.00  3.2575176E-02
   7143.20  3.2434244E-02
   7143.40  3.2400301E-02
   7143.60  3.2476264E-02
   7143.80  3.2659878E-02
   7144.00  3.2944175E-02
   7144.20  3.3317615E-02
   7144.40  3.3764011E-02
   7144.60  3.4262539E-02
   7144.80  3.4788141E-02
   7145.00  3.5312504E-02
   7145.20  3.5806002E-02
   7145.40  3.6240005E-02
   7145.60  3.6589811E-02
   7145.80  3.6837217E-02
   7146.00  3.6972071E-02
   7146.20  3.6992670E-02
   7146.40  3.6905211E-02
   7146.60  3.6722138E-02
   7146.80  3.6468606E-02
   7147.00  3.6167439E-02
   7147.20  3.5823801E-02
   7147.40  3.5453487E-02
   7147.60  3.5070383E-02
   7147.80  3.4686228E-02
   7148.00  3.4310499E-02
   7148.20  3.3950546E-02
   7148.40  3.3611808E-02
   7148.60  3.3298169E-02
   7148.80  3.3012200E-02
   7149.00  3.2755410E-02
   7149.20  3.2528457E-02
   7149.40  3.2331389E-02
   7149.60  3.2163827E-02
   7149.80  3.2025073E-02
   7150.00  3.1914240E-02
   7150.20  3.1830268E-02
   7150.40  3.1764278E-02
   7150.60  3.1730528E-02
   7150.80  3.1719597E-02
   7151.00  3.1730095E-02
   7151.20  3.1760931E-02
   7151.40  3.1810685E-02
   7151.60  3.1881036E-02
   7151.80  3.1968136E-02
   7152.00  3.2067750E-02
   7152.20  3.2181486E-02
   7152.40  3.2308184E-02
   7152.60  3.2446817E-02
   7152.80  3.2596349E-02
   7153.00  3.2755531E-02
   7153.20  3.2923317E-02
   7153.40  3.3098718E-02
   7153.60  3.3280896E-02
   7153.80  3.3469094E-02
   7154.00  3.3662585E-02
   7154.20  3.3861115E-02
   7154.40  3.4065338E-02
   7154.60  3.4276173E-02
   7154.80  3.4492518E-02
   7155.00  3.4714963E-02
   7155.20  3.4944363E-02
   7155.40  3.5181630E-02
   7155.60  3.5427368E-02
   7155.80  3.5681967E-02
   7156.00  3.5945460E-02
   7156.20  3.6217345E-02
   7156.40  3.6496692E-02
   7156.60  3.6782322E-02
   7156.80  3.7072465E-02
   7157.00  3.7365256E-02
   7157.20  3.7658727E-02
   7157.40  3.7950886E-02
   7157.60  3.8239758E-02
   7157.80  3.8523421E-02
   7158.00  3.8800078E-02
   7158.20  3.9068067E-02
   7158.40  3.9325930E-02
   7158.60  3.9572145E-02
   7158.80  3.9805412E-02
   7159.00  4.0024570E-02
   7159.20  4.0228711E-02
   7159.40  4.0416702E-02
   7159.60  4.0586671E-02
   7159.80  4.0737988E-02
   7160.00  4.0871587E-02
   7160.20  4.0985724E-02
   7160.40  4.1079738E-02
   7160.60  4.1153017E-02
   7160.80  4.1205082E-02
   7161.00  4.1235475E-02
   7161.20  4.1243671E-02
   7161.40  4.1229290E-02
   7161.60  4.1190894E-02
   7161.80  4.1129166E-02
   7162.00  4.1045310E-02
   7162.20  4.0937998E-02
   7162.40  4.0807134E-02
   7162.60  4.0652746E-02
   7162.80  4.0474641E-02
   7163.00  4.0273493E-02
   7163.20  4.0053188E-02
   7163.40  3.9806242E-02
   7163.60  3.9537180E-02
   7163.80  3.9246603E-02
   7164.00  3.8935225E-02
   7164.20  3.8603896E-02
   7164.40  3.8254187E-02
   7164.60  3.7886489E-02
   7164.80  3.7501945E-02
   7165.00  3.7102094E-02
   7165.20  3.6689232E-02
   7165.40  3.6263530E-02
   7165.60  3.5826477E-02
   7165.80  3.5379599E-02
   7166.00  3.4925067E-02
   7166.20  3.4464401E-02
   7166.40  3.3998867E-02
   7166.60  3.3530146E-02
   7166.80  3.3059969E-02
   7167.00  3.2590444E-02
   7167.20  3.2123669E-02
   7167.40  3.1660642E-02
   7167.60  3.1203393E-02
   7167.80  3.0753011E-02
   7168.00  3.0310843E-02
   7168.20  2.9878528E-02
   7168.40  2.9456372E-02
   7168.60  2.9047684E-02
   7168.80  2.8652140E-02
   7169.00  2.8270659E-02
   7169.20  2.7904055E-02
   7169.40  2.7553036E-02
   7169.60  2.7217416E-02
   7169.80  2.6900428E-02
   7170.00  2.6601342E-02
   7170.20  2.6319524E-02
   7170.40  2.6055347E-02
   7170.60  2.5808450E-02
   7170.80  2.5579344E-02
   7171.00  2.5366820E-02
   7171.20  2.5171270E-02
   7171.40  2.4996631E-02
   7171.60  2.4834270E-02
   7171.80  2.4687497E-02
   7172.00  2.4555930E-02
